PE UV       SUBTECH     SPECTRUM    ASCII       PEDS        4.00        
   -1
Sample8.Sample.Raw.asc
20/12/09
15:11:26.00
20/12/09
15:11:26.00
Administrator

300.000000
1
Lambda 850
850L1710193
PerkinElmer UV WinLab 6.4.0.973 / 2.02.06 Lambda 800 UV/VIS, Jan 28 2016 16:58:34

0
0
2
0
0
UV/VIS
1
1
1
RBeamAtt,SBeamAtt,60mm sphere
0
0
0
0
Fix
 
0
0.2
0
0
0
 
 
 
0
 
0
319.2
0
Front
100
 
S:100 R:100
 
0
0
0
 
0
 
 
 
0
 
 
0
0
0
0
0
 
 
 
 
0
0


0
0
#HDR
-1
-1
#GR
nm
%T
1.0
0.0
750.000000
-1.500000
301
8
68.109195
-0.035242
#DATA
750.000000	67.809825
748.500000	68.038256
747.000000	68.109195
745.500000	68.048268
744.000000	67.963265
742.500000	67.834031
741.000000	67.704533
739.500000	67.867588
738.000000	67.812654
736.500000	67.612982
735.000000	67.648555
733.500000	67.606371
732.000000	67.566013
730.500000	67.503802
729.000000	67.427710
727.500000	67.396782
726.000000	67.311330
724.500000	67.335304
723.000000	67.198816
721.500000	67.341939
720.000000	67.217930
718.500000	67.203311
717.000000	67.274595
715.500000	67.190051
714.000000	67.070134
712.500000	67.025978
711.000000	67.127852
709.500000	66.958722
708.000000	66.876687
706.500000	66.844871
705.000000	66.919070
703.500000	66.859738
702.000000	66.758807
700.500000	66.768633
699.000000	66.669533
697.500000	66.647703
696.000000	66.546113
694.500000	66.527231
693.000000	66.505179
691.500000	66.497209
690.000000	66.254527
688.500000	66.410671
687.000000	66.362598
685.500000	66.251449
684.000000	66.206646
682.500000	66.184349
681.000000	66.159446
679.500000	66.012232
678.000000	65.988052
676.500000	65.949956
675.000000	65.890978
673.500000	65.805930
672.000000	65.684499
670.500000	65.690499
669.000000	65.611891
667.500000	65.430026
666.000000	65.409781
664.500000	65.348054
663.000000	65.231249
661.500000	65.100661
660.000000	65.037966
658.500000	65.015246
657.000000	64.933701
655.500000	64.830007
654.000000	64.701932
652.500000	64.560992
651.000000	64.453684
649.500000	64.374825
648.000000	64.332098
646.500000	64.217285
645.000000	64.071348
643.500000	63.934238
642.000000	63.824840
640.500000	63.701340
639.000000	63.576864
637.500000	63.467488
636.000000	63.331816
634.500000	63.231598
633.000000	63.067458
631.500000	62.920121
630.000000	62.808036
628.500000	62.610432
627.000000	62.515841
625.500000	62.400933
624.000000	62.297543
622.500000	62.155922
621.000000	62.015177
619.500000	61.849662
618.000000	61.739617
616.500000	61.574687
615.000000	61.424801
613.500000	61.313883
612.000000	61.135699
610.500000	61.015447
609.000000	60.844292
607.500000	60.712157
606.000000	60.589735
604.500000	60.397871
603.000000	60.251344
601.500000	60.102845
600.000000	59.992895
598.500000	59.810067
597.000000	59.676181
595.500000	59.529723
594.000000	59.367893
592.500000	59.257440
591.000000	59.135932
589.500000	58.983952
588.000000	58.862517
586.500000	58.688788
585.000000	58.516044
583.500000	58.391945
582.000000	58.279119
580.500000	58.137063
579.000000	57.983171
577.500000	57.843311
576.000000	57.705017
574.500000	57.547199
573.000000	57.396234
571.500000	57.252258
570.000000	57.133794
568.500000	56.994550
567.000000	56.861339
565.500000	56.713984
564.000000	56.545381
562.500000	56.402339
561.000000	56.371190
559.500000	56.361897
558.000000	56.253199
556.500000	56.177381
555.000000	56.082886
553.500000	55.924772
552.000000	55.792825
550.500000	55.678080
549.000000	55.578550
547.500000	55.479178
546.000000	55.364438
544.500000	55.288004
543.000000	55.179274
541.500000	55.055833
540.000000	54.970943
538.500000	54.879082
537.000000	54.795285
535.500000	54.721359
534.000000	54.626786
532.500000	54.526578
531.000000	54.495576
529.500000	54.395369
528.000000	54.288913
526.500000	54.227380
525.000000	54.127270
523.500000	54.009053
522.000000	53.914581
520.500000	53.795369
519.000000	53.669408
517.500000	53.520701
516.000000	53.319482
514.500000	53.103338
513.000000	52.892869
511.500000	52.678328
510.000000	52.445104
508.500000	52.220149
507.000000	51.992879
505.500000	51.807919
504.000000	51.660069
502.500000	51.532972
501.000000	51.472579
499.500000	51.451899
498.000000	51.413941
496.500000	51.447991
495.000000	51.455592
493.500000	51.471526
492.000000	51.528730
490.500000	51.561232
489.000000	51.613616
487.500000	51.672902
486.000000	51.771002
484.500000	51.876866
483.000000	52.062239
481.500000	52.279805
480.000000	52.319187
478.500000	52.113466
477.000000	51.890093
475.500000	51.753992
474.000000	51.659829
472.500000	51.505756
471.000000	51.339901
469.500000	51.170295
468.000000	50.963366
466.500000	50.728343
465.000000	50.469376
463.500000	50.232643
462.000000	50.062726
460.500000	49.904760
459.000000	49.779481
457.500000	49.670335
456.000000	49.599338
454.500000	49.548964
453.000000	49.460649
451.500000	49.414349
450.000000	49.360000
448.500000	49.303091
447.000000	49.175790
445.500000	49.127927
444.000000	49.234838
442.500000	49.257999
441.000000	49.119545
439.500000	49.024806
438.000000	48.830640
436.500000	48.695775
435.000000	48.576802
433.500000	48.402928
432.000000	48.296796
430.500000	48.168291
429.000000	48.002794
427.500000	47.817586
426.000000	47.660928
424.500000	47.467573
423.000000	47.389418
421.500000	47.124707
420.000000	46.949291
418.500000	46.757591
417.000000	46.594452
415.500000	46.412963
414.000000	46.178296
412.500000	45.974395
411.000000	45.811316
409.500000	45.556009
408.000000	45.386764
406.500000	45.116814
405.000000	44.933137
403.500000	44.679817
402.000000	44.528379
400.500000	44.291486
399.000000	44.017507
397.500000	43.778998
396.000000	43.541750
394.500000	43.292490
393.000000	43.029473
391.500000	42.769483
390.000000	42.513824
388.500000	42.317928
387.000000	42.040253
385.500000	41.711371
384.000000	41.486794
382.500000	41.140901
381.000000	40.814444
379.500000	40.467751
378.000000	40.289597
376.500000	40.330684
375.000000	40.178547
373.500000	39.493795
372.000000	38.715350
370.500000	37.931593
369.000000	36.922044
367.500000	35.764030
366.000000	34.532715
364.500000	32.942636
363.000000	31.143784
361.500000	28.959352
360.000000	26.562454
358.500000	23.704866
357.000000	20.600990
355.500000	17.169486
354.000000	13.723052
352.500000	10.301384
351.000000	7.198261
349.500000	4.577223
348.000000	2.609126
346.500000	1.308451
345.000000	0.561266
343.500000	0.230226
342.000000	0.088812
340.500000	0.057201
339.000000	0.056606
337.500000	0.046090
336.000000	0.051500
334.500000	0.057013
333.000000	0.055383
331.500000	0.061885
330.000000	0.069366
328.500000	0.067131
327.000000	0.072014
325.500000	0.071697
324.000000	0.065649
322.500000	0.073062
321.000000	0.086126
319.500000	0.074111
318.000000	0.007181
316.500000	-0.031688
315.000000	-0.029910
313.500000	-0.026098
312.000000	-0.035242
310.500000	-0.023849
309.000000	-0.018766
307.500000	-0.010354
306.000000	-0.005804
304.500000	-0.002289
303.000000	-0.011454
301.500000	-0.021675
300.000000	-0.018255
