PE UV       SUBTECH     SPECTRUM    ASCII       PEDS        4.00        
   -1
Sample9.Sample.Raw.asc
20/12/09
15:15:13.00
20/12/09
15:15:13.00
Administrator

300.000000
1
Lambda 850
850L1710193
PerkinElmer UV WinLab 6.4.0.973 / 2.02.06 Lambda 800 UV/VIS, Jan 28 2016 16:58:34

0
0
2
0
0
UV/VIS
1
1
1
RBeamAtt,SBeamAtt,60mm sphere
0
0
0
0
Fix
 
0
0.2
0
0
0
 
 
 
0
 
0
319.2
0
Front
100
 
S:100 R:100
 
0
0
0
 
0
 
 
 
0
 
 
0
0
0
0
0
 
 
 
 
0
0


0
0
#HDR
-1
-1
#GR
nm
%T
1.0
0.0
750.000000
-1.500000
301
8
68.579125
-0.024438
#DATA
750.000000	68.269881
748.500000	68.579125
747.000000	68.507024
745.500000	68.455010
744.000000	68.259177
742.500000	68.423811
741.000000	68.222330
739.500000	68.158030
738.000000	68.240206
736.500000	68.067797
735.000000	68.115418
733.500000	67.929397
732.000000	68.030015
730.500000	67.970637
729.000000	67.895885
727.500000	67.841083
726.000000	67.802404
724.500000	67.899726
723.000000	67.757088
721.500000	67.808757
720.000000	67.682380
718.500000	67.642013
717.000000	67.610098
715.500000	67.517335
714.000000	67.459121
712.500000	67.381588
711.000000	67.457792
709.500000	67.373232
708.000000	67.289182
706.500000	67.381038
705.000000	67.386646
703.500000	67.268536
702.000000	67.150458
700.500000	67.244676
699.000000	67.195037
697.500000	67.049706
696.000000	67.052866
694.500000	66.982583
693.000000	66.940885
691.500000	66.889438
690.000000	66.729675
688.500000	66.891073
687.000000	66.815704
685.500000	66.732226
684.000000	66.686928
682.500000	66.675872
681.000000	66.581486
679.500000	66.511916
678.000000	66.485706
676.500000	66.350983
675.000000	66.351552
673.500000	66.327543
672.000000	66.154235
670.500000	66.167981
669.000000	66.065491
667.500000	65.923250
666.000000	65.901445
664.500000	65.819564
663.000000	65.726486
661.500000	65.586296
660.000000	65.564403
658.500000	65.475497
657.000000	65.348779
655.500000	65.267544
654.000000	65.200335
652.500000	65.076094
651.000000	64.960075
649.500000	64.851187
648.000000	64.767734
646.500000	64.690178
645.000000	64.544832
643.500000	64.441002
642.000000	64.349306
640.500000	64.218984
639.000000	64.063258
637.500000	63.950050
636.000000	63.830032
634.500000	63.746486
633.000000	63.607079
631.500000	63.468475
630.000000	63.298911
628.500000	63.153676
627.000000	63.088845
625.500000	62.953477
624.000000	62.817246
622.500000	62.691805
621.000000	62.585399
619.500000	62.411743
618.000000	62.268547
616.500000	62.111895
615.000000	61.985735
613.500000	61.881908
612.000000	61.697027
610.500000	61.522698
609.000000	61.401237
607.500000	61.271758
606.000000	61.150260
604.500000	60.967889
603.000000	60.815303
601.500000	60.697047
600.000000	60.584965
598.500000	60.425983
597.000000	60.278746
595.500000	60.138866
594.000000	59.989817
592.500000	59.867585
591.000000	59.748686
589.500000	59.584142
588.000000	59.423322
586.500000	59.283039
585.000000	59.138058
583.500000	58.998305
582.000000	58.862286
580.500000	58.721380
579.000000	58.567000
577.500000	58.469689
576.000000	58.319752
574.500000	58.170277
573.000000	58.022692
571.500000	57.893107
570.000000	57.745324
568.500000	57.583711
567.000000	57.476042
565.500000	57.330967
564.000000	57.156691
562.500000	57.038661
561.000000	57.003834
559.500000	56.994514
558.000000	56.901478
556.500000	56.811679
555.000000	56.694982
553.500000	56.536435
552.000000	56.417546
550.500000	56.301012
549.000000	56.208593
547.500000	56.125317
546.000000	56.011811
544.500000	55.904407
543.000000	55.807032
541.500000	55.722314
540.000000	55.612694
538.500000	55.513542
537.000000	55.459086
535.500000	55.379182
534.000000	55.271921
532.500000	55.168961
531.000000	55.097505
529.500000	54.998670
528.000000	54.880965
526.500000	54.823468
525.000000	54.759296
523.500000	54.656369
522.000000	54.533641
520.500000	54.401866
519.000000	54.278296
517.500000	54.112051
516.000000	53.911467
514.500000	53.702303
513.000000	53.489773
511.500000	53.255567
510.000000	53.021660
508.500000	52.786786
507.000000	52.567362
505.500000	52.383288
504.000000	52.220412
502.500000	52.093287
501.000000	52.026905
499.500000	52.014507
498.000000	51.991900
496.500000	52.012551
495.000000	52.042501
493.500000	52.080910
492.000000	52.163234
490.500000	52.219448
489.000000	52.259563
487.500000	52.294863
486.000000	52.344216
484.500000	52.465659
483.000000	52.630258
481.500000	52.840873
480.000000	52.872295
478.500000	52.684503
477.000000	52.474908
475.500000	52.319677
474.000000	52.209754
472.500000	52.061945
471.000000	51.907895
469.500000	51.717231
468.000000	51.505659
466.500000	51.259202
465.000000	51.001712
463.500000	50.800473
462.000000	50.612112
460.500000	50.440225
459.000000	50.304487
457.500000	50.195679
456.000000	50.125703
454.500000	50.085361
453.000000	50.030570
451.500000	49.957803
450.000000	49.883004
448.500000	49.846356
447.000000	49.720010
445.500000	49.680890
444.000000	49.789486
442.500000	49.791469
441.000000	49.667507
439.500000	49.536930
438.000000	49.368419
436.500000	49.229299
435.000000	49.085542
433.500000	48.956832
432.000000	48.833160
430.500000	48.634002
429.000000	48.514686
427.500000	48.346008
426.000000	48.158558
424.500000	47.962491
423.000000	47.827170
421.500000	47.668567
420.000000	47.453623
418.500000	47.298212
417.000000	47.072017
415.500000	46.922585
414.000000	46.658402
412.500000	46.496520
411.000000	46.303931
409.500000	45.991365
408.000000	45.834104
406.500000	45.579135
405.000000	45.385647
403.500000	45.150050
402.000000	44.957534
400.500000	44.662541
399.000000	44.437691
397.500000	44.203223
396.000000	43.942888
394.500000	43.696905
393.000000	43.464004
391.500000	43.159361
390.000000	42.894188
388.500000	42.690392
387.000000	42.409223
385.500000	42.084594
384.000000	41.823274
382.500000	41.514062
381.000000	41.168386
379.500000	40.785586
378.000000	40.481299
376.500000	40.591295
375.000000	40.427438
373.500000	39.767560
372.000000	38.909759
370.500000	38.144474
369.000000	37.087983
367.500000	36.033816
366.000000	34.713808
364.500000	33.023514
363.000000	31.334538
361.500000	29.124599
360.000000	26.620309
358.500000	23.840511
357.000000	20.636453
355.500000	17.262707
354.000000	13.750516
352.500000	10.359116
351.000000	7.227324
349.500000	4.598827
348.000000	2.610421
346.500000	1.292826
345.000000	0.544981
343.500000	0.199548
342.000000	0.066841
340.500000	0.041043
339.000000	0.029093
337.500000	0.032430
336.000000	0.038089
334.500000	0.045666
333.000000	0.047750
331.500000	0.050235
330.000000	0.045437
328.500000	0.041118
327.000000	0.053638
325.500000	0.060308
324.000000	0.058645
322.500000	0.073529
321.000000	0.048399
319.500000	0.049501
318.000000	0.015211
316.500000	-0.015090
315.000000	-0.024438
313.500000	-0.022127
312.000000	-0.015212
310.500000	-0.009180
309.000000	-0.007961
307.500000	-0.009024
306.000000	-0.002379
304.500000	0.000477
303.000000	-0.004773
301.500000	-0.008880
300.000000	-0.004492
