PE UV       SUBTECH     SPECTRUM    ASCII       PEDS        4.00        
   -1
Sample6.Sample.Raw.asc
20/12/09
15:05:18.00
20/12/09
15:05:18.00
Administrator

300.000000
1
Lambda 850
850L1710193
PerkinElmer UV WinLab 6.4.0.973 / 2.02.06 Lambda 800 UV/VIS, Jan 28 2016 16:58:34

0
0
2
0
0
UV/VIS
1
1
1
RBeamAtt,SBeamAtt,60mm sphere
0
0
0
0
Fix
 
0
0.2
0
0
0
 
 
 
0
 
0
319.2
0
Front
100
 
S:100 R:100
 
0
0
0
 
0
 
 
 
0
 
 
0
0
0
0
0
 
 
 
 
0
0


0
0
#HDR
-1
-1
#GR
nm
%T
1.0
0.0
750.000000
-1.500000
301
8
68.118706
-0.020803
#DATA
750.000000	67.884874
748.500000	68.118706
747.000000	68.024200
745.500000	67.964327
744.000000	67.954758
742.500000	67.866315
741.000000	67.884812
739.500000	67.838041
738.000000	67.897547
736.500000	67.865143
735.000000	67.789955
733.500000	67.697991
732.000000	67.649217
730.500000	67.618456
729.000000	67.413313
727.500000	67.441204
726.000000	67.419598
724.500000	67.413281
723.000000	67.294292
721.500000	67.404312
720.000000	67.301426
718.500000	67.186997
717.000000	67.260466
715.500000	67.173156
714.000000	67.097487
712.500000	66.998466
711.000000	67.109122
709.500000	66.957660
708.000000	67.007375
706.500000	66.946987
705.000000	67.003741
703.500000	66.920664
702.000000	66.837154
700.500000	66.834300
699.000000	66.765608
697.500000	66.640008
696.000000	66.621606
694.500000	66.627628
693.000000	66.555166
691.500000	66.496389
690.000000	66.383360
688.500000	66.467827
687.000000	66.415634
685.500000	66.361033
684.000000	66.306694
682.500000	66.286517
681.000000	66.222509
679.500000	66.103816
678.000000	66.052356
676.500000	66.023071
675.000000	65.945381
673.500000	65.896750
672.000000	65.814478
670.500000	65.783936
669.000000	65.681175
667.500000	65.523930
666.000000	65.523737
664.500000	65.458556
663.000000	65.348425
661.500000	65.267894
660.000000	65.106532
658.500000	65.058451
657.000000	65.036296
655.500000	64.945209
654.000000	64.796481
652.500000	64.739541
651.000000	64.596269
649.500000	64.538619
648.000000	64.455810
646.500000	64.327393
645.000000	64.241240
643.500000	64.119462
642.000000	63.997045
640.500000	63.867938
639.000000	63.731505
637.500000	63.559358
636.000000	63.477397
634.500000	63.362097
633.000000	63.276263
631.500000	63.160114
630.000000	62.963645
628.500000	62.830242
627.000000	62.773680
625.500000	62.663348
624.000000	62.477863
622.500000	62.341057
621.000000	62.238962
619.500000	62.114278
618.000000	61.976646
616.500000	61.800096
615.000000	61.670556
613.500000	61.567967
612.000000	61.398612
610.500000	61.276563
609.000000	61.137665
607.500000	61.013856
606.000000	60.822555
604.500000	60.666991
603.000000	60.541725
601.500000	60.385168
600.000000	60.259451
598.500000	60.136778
597.000000	59.981272
595.500000	59.830155
594.000000	59.672646
592.500000	59.574480
591.000000	59.443013
589.500000	59.313452
588.000000	59.191013
586.500000	59.018467
585.000000	58.877064
583.500000	58.754585
582.000000	58.609044
580.500000	58.460947
579.000000	58.303001
577.500000	58.190627
576.000000	58.057146
574.500000	57.904486
573.000000	57.777855
571.500000	57.633670
570.000000	57.512522
568.500000	57.364224
567.000000	57.222179
565.500000	57.094558
564.000000	56.938271
562.500000	56.805323
561.000000	56.768712
559.500000	56.768017
558.000000	56.674452
556.500000	56.550985
555.000000	56.455297
553.500000	56.316263
552.000000	56.187830
550.500000	56.096654
549.000000	56.008023
547.500000	55.914135
546.000000	55.800603
544.500000	55.700568
543.000000	55.602446
541.500000	55.500706
540.000000	55.397839
538.500000	55.298854
537.000000	55.222192
535.500000	55.144997
534.000000	55.056627
532.500000	54.973910
531.000000	54.914756
529.500000	54.810796
528.000000	54.707382
526.500000	54.631593
525.000000	54.557184
523.500000	54.445983
522.000000	54.328448
520.500000	54.200805
519.000000	54.076356
517.500000	53.929663
516.000000	53.724912
514.500000	53.501267
513.000000	53.254260
511.500000	53.034483
510.000000	52.814504
508.500000	52.583297
507.000000	52.359604
505.500000	52.158939
504.000000	51.991154
502.500000	51.881377
501.000000	51.833397
499.500000	51.824455
498.000000	51.796619
496.500000	51.823893
495.000000	51.862463
493.500000	51.893305
492.000000	51.952260
490.500000	52.019991
489.000000	52.078271
487.500000	52.128962
486.000000	52.182707
484.500000	52.270676
483.000000	52.464261
481.500000	52.702596
480.000000	52.745113
478.500000	52.531472
477.000000	52.321207
475.500000	52.169046
474.000000	52.051017
472.500000	51.908598
471.000000	51.715996
469.500000	51.537430
468.000000	51.321798
466.500000	51.085176
465.000000	50.842538
463.500000	50.607912
462.000000	50.430235
460.500000	50.274202
459.000000	50.140725
457.500000	50.050673
456.000000	49.978284
454.500000	49.929263
453.000000	49.869396
451.500000	49.833305
450.000000	49.760230
448.500000	49.693508
447.000000	49.626624
445.500000	49.524876
444.000000	49.676707
442.500000	49.697367
441.000000	49.545260
439.500000	49.406960
438.000000	49.279758
436.500000	49.134563
435.000000	48.972020
433.500000	48.831605
432.000000	48.749440
430.500000	48.562861
429.000000	48.451175
427.500000	48.287595
426.000000	48.088036
424.500000	47.934653
423.000000	47.782759
421.500000	47.577514
420.000000	47.418514
418.500000	47.227896
417.000000	47.077715
415.500000	46.840375
414.000000	46.631374
412.500000	46.415207
411.000000	46.236543
409.500000	46.006723
408.000000	45.774712
406.500000	45.566540
405.000000	45.339314
403.500000	45.183434
402.000000	44.942260
400.500000	44.726326
399.000000	44.454028
397.500000	44.237848
396.000000	44.017333
394.500000	43.775819
393.000000	43.492344
391.500000	43.228630
390.000000	42.947888
388.500000	42.748576
387.000000	42.502272
385.500000	42.198977
384.000000	41.916996
382.500000	41.557074
381.000000	41.266373
379.500000	40.922406
378.000000	40.627350
376.500000	40.662182
375.000000	40.628799
373.500000	39.894336
372.000000	39.125728
370.500000	38.277891
369.000000	37.203876
367.500000	36.199437
366.000000	34.889408
364.500000	33.282617
363.000000	31.455594
361.500000	29.381180
360.000000	26.879279
358.500000	24.092121
357.000000	20.901053
355.500000	17.513472
354.000000	14.030129
352.500000	10.546513
351.000000	7.381218
349.500000	4.746825
348.000000	2.714564
346.500000	1.354029
345.000000	0.578846
343.500000	0.202977
342.000000	0.058961
340.500000	0.016250
339.000000	0.012362
337.500000	0.014403
336.000000	0.017974
334.500000	0.021764
333.000000	0.021781
331.500000	0.040356
330.000000	0.043947
328.500000	0.040279
327.000000	0.029571
325.500000	0.029220
324.000000	0.032965
322.500000	0.032607
321.000000	0.031736
319.500000	0.032096
318.000000	0.013889
316.500000	-0.014052
315.000000	-0.013681
313.500000	-0.020803
312.000000	-0.018141
310.500000	-0.010410
309.000000	-0.013269
307.500000	-0.009024
306.000000	0.005043
304.500000	0.008489
303.000000	-0.000764
301.500000	-0.004774
300.000000	-0.002581
