PE UV       SUBTECH     SPECTRUM    ASCII       PEDS        4.00        
   -1
Sample84.Sample.Raw.asc
20/12/16
16:39:13.00
20/12/16
16:39:13.00
Administrator

300.000000
1
Lambda 850
850L1710193
PerkinElmer UV WinLab 6.4.0.973 / 2.02.06 Lambda 800 UV/VIS, Jan 28 2016 16:58:34

0
0
2
0
0
UV/VIS
1
1
1
RBeamAtt,SBeamAtt,60mm sphere
0
0
0
0
Fix
 
0
0.2
0
0
0
 
 
 
0
 
0
319.2
0
Front
100
 
S:100 R:100
 
0
0
0
 
0
 
 
 
0
 
 
0
0
0
0
0
 
 
 
 
0
0


0
0
#HDR
-1
-1
#GR
nm
%T
1.0
0.0
750.000000
-1.500000
301
8
74.220305
-0.036274
#DATA
750.000000	73.737657
748.500000	74.220305
747.000000	74.031576
745.500000	74.169611
744.000000	73.972691
742.500000	74.050822
741.000000	74.115622
739.500000	73.871273
738.000000	73.994421
736.500000	74.019148
735.000000	74.051797
733.500000	74.057967
732.000000	74.002673
730.500000	73.923972
729.000000	73.994037
727.500000	73.987355
726.000000	74.108055
724.500000	74.104357
723.000000	73.944908
721.500000	73.983036
720.000000	73.954420
718.500000	73.901799
717.000000	73.902159
715.500000	73.790932
714.000000	73.971710
712.500000	74.024597
711.000000	73.849101
709.500000	73.765965
708.000000	73.911331
706.500000	73.791587
705.000000	73.828278
703.500000	73.816892
702.000000	73.802430
700.500000	73.793901
699.000000	73.725841
697.500000	73.648579
696.000000	73.741743
694.500000	73.659789
693.000000	73.766140
691.500000	73.688955
690.000000	73.543914
688.500000	73.714022
687.000000	73.768803
685.500000	73.577494
684.000000	73.626984
682.500000	73.635624
681.000000	73.696785
679.500000	73.718193
678.000000	73.607156
676.500000	73.566075
675.000000	73.662383
673.500000	73.643455
672.000000	73.551137
670.500000	73.570319
669.000000	73.585155
667.500000	73.495115
666.000000	73.476526
664.500000	73.551893
663.000000	73.456667
661.500000	73.414687
660.000000	73.457935
658.500000	73.416146
657.000000	73.348670
655.500000	73.467430
654.000000	73.500159
652.500000	73.447892
651.000000	73.415847
649.500000	73.392729
648.000000	73.354961
646.500000	73.293314
645.000000	73.308532
643.500000	73.326383
642.000000	73.331155
640.500000	73.303374
639.000000	73.280538
637.500000	73.280736
636.000000	73.241727
634.500000	73.213680
633.000000	73.219165
631.500000	73.222636
630.000000	73.197562
628.500000	73.172590
627.000000	73.207508
625.500000	73.200747
624.000000	73.126100
622.500000	73.148634
621.000000	73.197257
619.500000	73.137044
618.000000	73.068715
616.500000	73.062774
615.000000	73.042374
613.500000	73.006642
612.000000	72.981213
610.500000	72.954867
609.000000	72.939135
607.500000	72.921451
606.000000	72.884140
604.500000	72.931105
603.000000	72.905818
601.500000	72.837996
600.000000	72.851615
598.500000	72.830549
597.000000	72.821640
595.500000	72.792790
594.000000	72.752583
592.500000	72.721552
591.000000	72.678258
589.500000	72.673619
588.000000	72.653846
586.500000	72.629418
585.000000	72.616735
583.500000	72.597719
582.000000	72.555679
580.500000	72.525524
579.000000	72.539639
577.500000	72.513113
576.000000	72.481598
574.500000	72.468341
573.000000	72.435160
571.500000	72.383619
570.000000	72.347914
568.500000	72.352560
567.000000	72.295147
565.500000	72.242024
564.000000	72.207046
562.500000	72.151772
561.000000	72.299917
559.500000	72.446549
558.000000	72.400721
556.500000	72.386424
555.000000	72.382070
553.500000	72.321615
552.000000	72.309630
550.500000	72.307653
549.000000	72.252756
547.500000	72.244984
546.000000	72.222392
544.500000	72.209561
543.000000	72.199509
541.500000	72.161065
540.000000	72.142488
538.500000	72.138302
537.000000	72.121798
535.500000	72.112687
534.000000	72.093457
532.500000	72.084091
531.000000	72.057688
529.500000	72.023795
528.000000	72.007032
526.500000	71.969805
525.000000	71.932557
523.500000	71.874174
522.000000	71.809354
520.500000	71.730709
519.000000	71.604811
517.500000	71.487528
516.000000	71.344736
514.500000	71.166621
513.000000	70.941312
511.500000	70.691309
510.000000	70.472625
508.500000	70.236591
507.000000	70.003409
505.500000	69.855546
504.000000	69.741308
502.500000	69.685103
501.000000	69.661494
499.500000	69.659614
498.000000	69.782985
496.500000	69.874372
495.000000	69.955675
493.500000	70.110515
492.000000	70.250963
490.500000	70.376853
489.000000	70.498998
487.500000	70.659932
486.000000	70.781434
484.500000	70.911100
483.000000	71.229285
481.500000	71.592994
480.000000	71.618715
478.500000	71.327088
477.000000	71.022352
475.500000	70.875256
474.000000	70.740270
472.500000	70.585501
471.000000	70.405211
469.500000	70.225080
468.000000	69.995637
466.500000	69.711718
465.000000	69.442627
463.500000	69.196264
462.000000	68.988415
460.500000	68.871564
459.000000	68.758547
457.500000	68.692040
456.000000	68.662274
454.500000	68.660010
453.000000	68.715053
451.500000	68.730954
450.000000	68.735418
448.500000	68.770249
447.000000	68.765672
445.500000	68.833792
444.000000	69.104597
442.500000	69.216954
441.000000	69.173341
439.500000	69.024287
438.000000	68.917460
436.500000	68.859294
435.000000	68.789729
433.500000	68.692432
432.000000	68.671677
430.500000	68.524392
429.000000	68.481157
427.500000	68.493988
426.000000	68.347185
424.500000	68.262574
423.000000	68.203560
421.500000	68.121996
420.000000	68.078006
418.500000	67.996302
417.000000	67.951687
415.500000	67.806179
414.000000	67.723251
412.500000	67.613432
411.000000	67.534685
409.500000	67.433080
408.000000	67.312183
406.500000	67.300841
405.000000	67.157129
403.500000	67.016181
402.000000	66.891509
400.500000	66.808584
399.000000	66.706109
397.500000	66.574846
396.000000	66.366856
394.500000	66.297679
393.000000	66.103231
391.500000	65.997168
390.000000	65.790014
388.500000	65.605531
387.000000	65.373954
385.500000	65.213562
384.000000	64.941295
382.500000	64.642682
381.000000	64.369056
379.500000	63.900754
378.000000	63.704955
376.500000	64.098662
375.000000	63.981327
373.500000	62.937977
372.000000	61.816325
370.500000	60.565426
369.000000	59.266378
367.500000	57.421028
366.000000	55.310613
364.500000	52.996034
363.000000	50.101751
361.500000	46.894913
360.000000	42.915946
358.500000	38.639415
357.000000	33.811486
355.500000	28.683155
354.000000	23.326587
352.500000	18.107938
351.000000	13.320041
349.500000	9.246326
348.000000	6.012425
346.500000	3.678080
345.000000	2.093090
343.500000	1.092938
342.000000	0.538874
340.500000	0.243772
339.000000	0.103009
337.500000	0.043727
336.000000	0.022216
334.500000	0.025165
333.000000	0.023270
331.500000	0.031965
330.000000	0.032761
328.500000	0.040346
327.000000	0.024873
325.500000	0.034677
324.000000	0.027849
322.500000	0.039710
321.000000	0.024675
319.500000	0.028650
318.000000	-0.000752
316.500000	-0.029281
315.000000	-0.033419
313.500000	-0.036274
312.000000	-0.035118
310.500000	-0.031384
309.000000	-0.028844
307.500000	-0.018608
306.000000	-0.003122
304.500000	0.002086
303.000000	-0.005315
301.500000	-0.004182
300.000000	-0.003615
