PE UV       SUBTECH     SPECTRUM    ASCII       PEDS        4.00        
   -1
Sample83.Sample.Raw.asc
20/12/16
16:36:06.00
20/12/16
16:36:06.00
Administrator

300.000000
1
Lambda 850
850L1710193
PerkinElmer UV WinLab 6.4.0.973 / 2.02.06 Lambda 800 UV/VIS, Jan 28 2016 16:58:34

0
0
2
0
0
UV/VIS
1
1
1
RBeamAtt,SBeamAtt,60mm sphere
0
0
0
0
Fix
 
0
0.2
0
0
0
 
 
 
0
 
0
319.2
0
Front
100
 
S:100 R:100
 
0
0
0
 
0
 
 
 
0
 
 
0
0
0
0
0
 
 
 
 
0
0


0
0
#HDR
-1
-1
#GR
nm
%T
1.0
0.0
750.000000
-1.500000
301
8
75.466824
-0.034771
#DATA
750.000000	75.086705
748.500000	75.456814
747.000000	75.325547
745.500000	75.466824
744.000000	75.398856
742.500000	75.306366
741.000000	75.275239
739.500000	75.217682
738.000000	75.326819
736.500000	75.169079
735.000000	75.262147
733.500000	75.248871
732.000000	75.269740
730.500000	75.098593
729.000000	75.295369
727.500000	75.230569
726.000000	75.312930
724.500000	75.248929
723.000000	75.264798
721.500000	75.127735
720.000000	75.241188
718.500000	75.134428
717.000000	75.048386
715.500000	75.085239
714.000000	75.103262
712.500000	75.173672
711.000000	75.070707
709.500000	75.093174
708.000000	75.196463
706.500000	75.044539
705.000000	75.052440
703.500000	75.018006
702.000000	74.944137
700.500000	75.044979
699.000000	74.950951
697.500000	74.994414
696.000000	75.047479
694.500000	75.017613
693.000000	74.972496
691.500000	74.880020
690.000000	74.834347
688.500000	75.024682
687.000000	74.969556
685.500000	74.863673
684.000000	74.779476
682.500000	74.805744
681.000000	74.848127
679.500000	74.936241
678.000000	74.869400
676.500000	74.707647
675.000000	74.868990
673.500000	74.843158
672.000000	74.718635
670.500000	74.750188
669.000000	74.758404
667.500000	74.772010
666.000000	74.743111
664.500000	74.764296
663.000000	74.714839
661.500000	74.676849
660.000000	74.693115
658.500000	74.710476
657.000000	74.722989
655.500000	74.745599
654.000000	74.660284
652.500000	74.623185
651.000000	74.642861
649.500000	74.606360
648.000000	74.554133
646.500000	74.572311
645.000000	74.637184
643.500000	74.590313
642.000000	74.571570
640.500000	74.546888
639.000000	74.474778
637.500000	74.523344
636.000000	74.559598
634.500000	74.523330
633.000000	74.541926
631.500000	74.503276
630.000000	74.453176
628.500000	74.446446
627.000000	74.440297
625.500000	74.411417
624.000000	74.373815
622.500000	74.408047
621.000000	74.438067
619.500000	74.401437
618.000000	74.379052
616.500000	74.353750
615.000000	74.368146
613.500000	74.315495
612.000000	74.241852
610.500000	74.232153
609.000000	74.225469
607.500000	74.204365
606.000000	74.204134
604.500000	74.243180
603.000000	74.232708
601.500000	74.160229
600.000000	74.113616
598.500000	74.088129
597.000000	74.082733
595.500000	74.053959
594.000000	73.996824
592.500000	73.980140
591.000000	74.002116
589.500000	74.023091
588.000000	73.961257
586.500000	73.990613
585.000000	74.024888
583.500000	73.946506
582.000000	73.918775
580.500000	73.931614
579.000000	73.925329
577.500000	73.899897
576.000000	73.852609
574.500000	73.838913
573.000000	73.851266
571.500000	73.777752
570.000000	73.733013
568.500000	73.744187
567.000000	73.716419
565.500000	73.671215
564.000000	73.650061
562.500000	73.650558
561.000000	73.802254
559.500000	73.892607
558.000000	73.865083
556.500000	73.893917
555.000000	73.895561
553.500000	73.858973
552.000000	73.853092
550.500000	73.861668
549.000000	73.820593
547.500000	73.807816
546.000000	73.819041
544.500000	73.837432
543.000000	73.840071
541.500000	73.816516
540.000000	73.801995
538.500000	73.810129
537.000000	73.809262
535.500000	73.798093
534.000000	73.828877
532.500000	73.844194
531.000000	73.824070
529.500000	73.825822
528.000000	73.830915
526.500000	73.808501
525.000000	73.766194
523.500000	73.727558
522.000000	73.688466
520.500000	73.619337
519.000000	73.500004
517.500000	73.395737
516.000000	73.257174
514.500000	73.062136
513.000000	72.857185
511.500000	72.609366
510.000000	72.371862
508.500000	72.115843
507.000000	71.859759
505.500000	71.656431
504.000000	71.499743
502.500000	71.408610
501.000000	71.335027
499.500000	71.256228
498.000000	71.346078
496.500000	71.371880
495.000000	71.401120
493.500000	71.563100
492.000000	71.699780
490.500000	71.801818
489.000000	71.900888
487.500000	72.032342
486.000000	72.200256
484.500000	72.363234
483.000000	72.779756
481.500000	73.205971
480.000000	73.336099
478.500000	73.124096
477.000000	72.875694
475.500000	72.747676
474.000000	72.668449
472.500000	72.588078
471.000000	72.435563
469.500000	72.266494
468.000000	72.055684
466.500000	71.760967
465.000000	71.456072
463.500000	71.235486
462.000000	70.999605
460.500000	70.859017
459.000000	70.733446
457.500000	70.634665
456.000000	70.603083
454.500000	70.560927
453.000000	70.564473
451.500000	70.543817
450.000000	70.498671
448.500000	70.479442
447.000000	70.413507
445.500000	70.493333
444.000000	70.838019
442.500000	70.959360
441.000000	70.926392
439.500000	70.827410
438.000000	70.742258
436.500000	70.634540
435.000000	70.626696
433.500000	70.548068
432.000000	70.431661
430.500000	70.409010
429.000000	70.339016
427.500000	70.315409
426.000000	70.258218
424.500000	70.215420
423.000000	70.143109
421.500000	70.090302
420.000000	69.982579
418.500000	69.902102
417.000000	69.864670
415.500000	69.775568
414.000000	69.655635
412.500000	69.584171
411.000000	69.580821
409.500000	69.488358
408.000000	69.341821
406.500000	69.362690
405.000000	69.213568
403.500000	69.147468
402.000000	69.040340
400.500000	68.988880
399.000000	68.800094
397.500000	68.755375
396.000000	68.549127
394.500000	68.484508
393.000000	68.499049
391.500000	68.250309
390.000000	68.189318
388.500000	68.069538
387.000000	67.882918
385.500000	67.734208
384.000000	67.586280
382.500000	67.416805
381.000000	67.103577
379.500000	66.762334
378.000000	66.832797
376.500000	67.372115
375.000000	67.416633
373.500000	66.566155
372.000000	65.692766
370.500000	64.673671
369.000000	63.693287
367.500000	62.393361
366.000000	60.863069
364.500000	59.035341
363.000000	56.784928
361.500000	54.341085
360.000000	51.225403
358.500000	47.850445
357.000000	43.749554
355.500000	39.089332
354.000000	34.068836
352.500000	28.828428
351.000000	23.397103
349.500000	18.105101
348.000000	13.284160
346.500000	9.109273
345.000000	5.711842
343.500000	3.250820
342.000000	1.621700
340.500000	0.700613
339.000000	0.242913
337.500000	0.088193
336.000000	0.034527
334.500000	0.027293
333.000000	0.019562
331.500000	0.029642
330.000000	0.032297
328.500000	0.035140
327.000000	0.041021
325.500000	0.044345
324.000000	0.035953
322.500000	0.036176
321.000000	0.034824
319.500000	0.039162
318.000000	-0.001128
316.500000	-0.032097
315.000000	-0.032480
313.500000	-0.034771
312.000000	-0.034177
310.500000	-0.033646
309.000000	-0.021963
307.500000	-0.022197
306.000000	-0.017598
304.500000	-0.011380
303.000000	-0.010440
301.500000	-0.014826
300.000000	-0.016171
