PE UV       SUBTECH     SPECTRUM    ASCII       PEDS        4.00        
   -1
Sample155.Sample.Raw.asc
21/01/27
12:27:32.00
21/01/27
12:27:32.00
Administrator

300.000000
1
Lambda 850
850L1710193
PerkinElmer UV WinLab 6.4.0.973 / 2.02.06 Lambda 800 UV/VIS, Jan 28 2016 16:58:34

0
0
2
0
0
UV/VIS
1
1
1
RBeamAtt,SBeamAtt,60mm sphere
0
0
0
0
Fix
 
0
0.2
0
0
0
 
 
 
0
 
0
319.2
0
Front
100
 
S:100 R:100
 
0
0
0
 
0
 
 
 
0
 
 
0
0
0
0
0
 
 
 
 
0
0


0
0
#HDR
-1
-1
#GR
nm
%T
1.0
0.0
750.000000
-1.500000
301
8
74.966454
-0.032652
#DATA
750.000000	74.564815
748.500000	74.966454
747.000000	74.900318
745.500000	74.921199
744.000000	74.694971
742.500000	74.746008
741.000000	74.783952
739.500000	74.922022
738.000000	74.739240
736.500000	74.816096
735.000000	74.727863
733.500000	74.720394
732.000000	74.757939
730.500000	74.701661
729.000000	74.735345
727.500000	74.659376
726.000000	74.669586
724.500000	74.702847
723.000000	74.663267
721.500000	74.708390
720.000000	74.617962
718.500000	74.596467
717.000000	74.416919
715.500000	74.484495
714.000000	74.572794
712.500000	74.437179
711.000000	74.450766
709.500000	74.431174
708.000000	74.453428
706.500000	74.509423
705.000000	74.492276
703.500000	74.518821
702.000000	74.477498
700.500000	74.435610
699.000000	74.427418
697.500000	74.401540
696.000000	74.354349
694.500000	74.387373
693.000000	74.283431
691.500000	74.331701
690.000000	74.109843
688.500000	74.249672
687.000000	74.260624
685.500000	74.287313
684.000000	74.299116
682.500000	74.242621
681.000000	74.234610
679.500000	74.204055
678.000000	74.206649
676.500000	74.118761
675.000000	74.075242
673.500000	74.141532
672.000000	74.013983
670.500000	74.013105
669.000000	74.016119
667.500000	74.026681
666.000000	73.991786
664.500000	73.881720
663.000000	73.871224
661.500000	73.893581
660.000000	73.880048
658.500000	73.794001
657.000000	73.795270
655.500000	73.686257
654.000000	73.702663
652.500000	73.671521
651.000000	73.645565
649.500000	73.561691
648.000000	73.522855
646.500000	73.560454
645.000000	73.496614
643.500000	73.424269
642.000000	73.392370
640.500000	73.333317
639.000000	73.266824
637.500000	73.254040
636.000000	73.184655
634.500000	73.158460
633.000000	73.127823
631.500000	73.066743
630.000000	73.019521
628.500000	72.956465
627.000000	72.932607
625.500000	72.899692
624.000000	72.863313
622.500000	72.824380
621.000000	72.726109
619.500000	72.677850
618.000000	72.637527
616.500000	72.584294
615.000000	72.508550
613.500000	72.439552
612.000000	72.367711
610.500000	72.329892
609.000000	72.257596
607.500000	72.236254
606.000000	72.172458
604.500000	72.130738
603.000000	72.085691
601.500000	72.039179
600.000000	71.960297
598.500000	71.896332
597.000000	71.888076
595.500000	71.825373
594.000000	71.728729
592.500000	71.687645
591.000000	71.631422
589.500000	71.554817
588.000000	71.517057
586.500000	71.503724
585.000000	71.426728
583.500000	71.350426
582.000000	71.309221
580.500000	71.265761
579.000000	71.207726
577.500000	71.126050
576.000000	71.090607
574.500000	71.040857
573.000000	70.952504
571.500000	70.917067
570.000000	70.851257
568.500000	70.771073
567.000000	70.664269
565.500000	70.582155
564.000000	70.545285
562.500000	70.550983
561.000000	70.666723
559.500000	70.758185
558.000000	70.739662
556.500000	70.696738
555.000000	70.635885
553.500000	70.600521
552.000000	70.571856
550.500000	70.548219
549.000000	70.516730
547.500000	70.465317
546.000000	70.421197
544.500000	70.417291
543.000000	70.440972
541.500000	70.422697
540.000000	70.393384
538.500000	70.362779
537.000000	70.348828
535.500000	70.325460
534.000000	70.279865
532.500000	70.280048
531.000000	70.310816
529.500000	70.298433
528.000000	70.254074
526.500000	70.220042
525.000000	70.201104
523.500000	70.156704
522.000000	70.074814
520.500000	69.999942
519.000000	69.922594
517.500000	69.814980
516.000000	69.652757
514.500000	69.440707
513.000000	69.215608
511.500000	68.962466
510.000000	68.708843
508.500000	68.474241
507.000000	68.197359
505.500000	67.925000
504.000000	67.746082
502.500000	67.609875
501.000000	67.509426
499.500000	67.464089
498.000000	67.431411
496.500000	67.418076
495.000000	67.438292
493.500000	67.486410
492.000000	67.580036
490.500000	67.651714
489.000000	67.770413
487.500000	67.869358
486.000000	67.987230
484.500000	68.207276
483.000000	68.589417
481.500000	69.015908
480.000000	69.187250
478.500000	69.029149
477.000000	68.860101
475.500000	68.752039
474.000000	68.644552
472.500000	68.510662
471.000000	68.411813
469.500000	68.228704
468.000000	67.991629
466.500000	67.718285
465.000000	67.500035
463.500000	67.211347
462.000000	66.985943
460.500000	66.784662
459.000000	66.634078
457.500000	66.518466
456.000000	66.439201
454.500000	66.410031
453.000000	66.357487
451.500000	66.345086
450.000000	66.283120
448.500000	66.254220
447.000000	66.169271
445.500000	66.171141
444.000000	66.440919
442.500000	66.585491
441.000000	66.491225
439.500000	66.444172
438.000000	66.387858
436.500000	66.200672
435.000000	66.163355
433.500000	66.122420
432.000000	66.033724
430.500000	65.974313
429.000000	65.930087
427.500000	65.820871
426.000000	65.741485
424.500000	65.657896
423.000000	65.630615
421.500000	65.555511
420.000000	65.510203
418.500000	65.462989
417.000000	65.343954
415.500000	65.258862
414.000000	65.225280
412.500000	65.148239
411.000000	65.032147
409.500000	64.952098
408.000000	64.820456
406.500000	64.762255
405.000000	64.626690
403.500000	64.660118
402.000000	64.576435
400.500000	64.494093
399.000000	64.352444
397.500000	64.390967
396.000000	64.226844
394.500000	64.078965
393.000000	63.924608
391.500000	63.885959
390.000000	63.910135
388.500000	63.749911
387.000000	63.644576
385.500000	63.455414
384.000000	63.290966
382.500000	63.089604
381.000000	62.999968
379.500000	62.750363
378.000000	62.576281
376.500000	63.122221
375.000000	63.308282
373.500000	62.715854
372.000000	61.890931
370.500000	61.120258
369.000000	60.157937
367.500000	58.942592
366.000000	57.639072
364.500000	56.095796
363.000000	54.229584
361.500000	51.934684
360.000000	49.278168
358.500000	46.201506
357.000000	42.542583
355.500000	38.279065
354.000000	33.666645
352.500000	28.707031
351.000000	23.637665
349.500000	18.557370
348.000000	13.803702
346.500000	9.670570
345.000000	6.243660
343.500000	3.624994
342.000000	1.866854
340.500000	0.836630
339.000000	0.318895
337.500000	0.115462
336.000000	0.053432
334.500000	0.044188
333.000000	0.043322
331.500000	0.039920
330.000000	0.043376
328.500000	0.043826
327.000000	0.046685
325.500000	0.050857
324.000000	0.048224
322.500000	0.052679
321.000000	0.054994
319.500000	0.046549
318.000000	0.005474
316.500000	-0.023241
315.000000	-0.032652
313.500000	-0.029011
312.000000	-0.025662
310.500000	-0.023603
309.000000	-0.021747
307.500000	-0.012502
306.000000	-0.010440
304.500000	-0.007226
303.000000	-0.008662
301.500000	-0.013245
300.000000	-0.010790
