PE UV       SUBTECH     SPECTRUM    ASCII       PEDS        4.00        
   -1
Sample18.Sample.Raw.asc
21/03/30
12:02:43.00
21/03/30
12:02:43.00
Administrator

300.000000
1
Lambda 850
850L1710193
PerkinElmer UV WinLab 6.4.0.973 / 2.02.06 Lambda 800 UV/VIS, Jan 28 2016 16:58:34

0
0
2
0
0
UV/VIS
1
1
1
RBeamAtt,SBeamAtt,60mm sphere
0
0
0
0
Fix
 
0
0.2
0
0
0
 
 
 
0
 
0
340
0
Front
100
 
S:100 R:100
 
0
0
0
 
0
 
 
 
0
 
 
0
0
0
0
0
 
 
 
 
0
0


0
0
#HDR
-1
-1
#GR
nm
%T
1.0
0.0
750.000000
-1.500000
301
8
74.674394
-0.029770
#DATA
750.000000	74.414478
748.500000	74.401517
747.000000	74.674394
745.500000	74.520267
744.000000	74.496005
742.500000	74.531022
741.000000	74.389872
739.500000	74.428899
738.000000	74.486163
736.500000	74.350770
735.000000	74.319918
733.500000	74.318959
732.000000	74.479233
730.500000	74.404275
729.000000	74.223540
727.500000	74.317028
726.000000	74.234424
724.500000	74.211027
723.000000	74.339102
721.500000	74.240994
720.000000	74.099633
718.500000	74.252154
717.000000	74.118563
715.500000	74.115700
714.000000	74.134788
712.500000	74.102128
711.000000	74.173123
709.500000	74.176780
708.000000	74.002436
706.500000	73.969634
705.000000	73.935842
703.500000	73.935524
702.000000	73.996632
700.500000	73.983903
699.000000	73.995271
697.500000	73.916588
696.000000	73.967475
694.500000	73.927295
693.000000	73.854037
691.500000	73.824826
690.000000	73.658126
688.500000	73.756381
687.000000	73.770663
685.500000	73.723732
684.000000	73.791599
682.500000	73.720415
681.000000	73.683149
679.500000	73.691074
678.000000	73.787318
676.500000	73.641079
675.000000	73.559583
673.500000	73.495846
672.000000	73.517245
670.500000	73.544932
669.000000	73.483367
667.500000	73.404613
666.000000	73.452924
664.500000	73.330700
663.000000	73.314495
661.500000	73.258517
660.000000	73.205499
658.500000	73.234232
657.000000	73.144733
655.500000	73.076563
654.000000	73.045776
652.500000	73.000907
651.000000	72.997963
649.500000	72.840032
648.000000	72.849617
646.500000	72.774397
645.000000	72.717568
643.500000	72.719853
642.000000	72.635432
640.500000	72.585620
639.000000	72.515698
637.500000	72.460188
636.000000	72.383535
634.500000	72.334517
633.000000	72.266916
631.500000	72.201549
630.000000	72.141761
628.500000	72.069022
627.000000	72.007006
625.500000	71.969487
624.000000	71.867392
622.500000	71.805281
621.000000	71.737468
619.500000	71.684653
618.000000	71.564016
616.500000	71.517976
615.000000	71.439053
613.500000	71.321658
612.000000	71.233026
610.500000	71.197721
609.000000	71.161810
607.500000	71.084379
606.000000	70.975166
604.500000	70.869275
603.000000	70.809972
601.500000	70.796806
600.000000	70.687112
598.500000	70.559098
597.000000	70.501385
595.500000	70.425590
594.000000	70.338547
592.500000	70.275610
591.000000	70.251116
589.500000	70.195663
588.000000	70.118995
586.500000	70.048506
585.000000	69.965998
583.500000	69.874033
582.000000	69.792325
580.500000	69.748982
579.000000	69.716462
577.500000	69.617184
576.000000	69.526777
574.500000	69.437258
573.000000	69.332371
571.500000	69.276805
570.000000	69.210682
568.500000	69.129422
567.000000	69.049788
565.500000	68.983628
564.000000	68.881707
562.500000	68.812636
561.000000	68.898672
559.500000	68.966118
558.000000	68.941624
556.500000	68.880805
555.000000	68.813889
553.500000	68.788337
552.000000	68.723777
550.500000	68.667271
549.000000	68.630003
547.500000	68.607312
546.000000	68.533215
544.500000	68.479107
543.000000	68.479451
541.500000	68.467817
540.000000	68.423182
538.500000	68.369757
537.000000	68.354165
535.500000	68.325101
534.000000	68.292695
532.500000	68.280912
531.000000	68.251437
529.500000	68.211991
528.000000	68.181233
526.500000	68.165909
525.000000	68.100992
523.500000	68.039233
522.000000	67.994376
520.500000	67.907160
519.000000	67.784993
517.500000	67.652355
516.000000	67.502827
514.500000	67.319641
513.000000	67.078523
511.500000	66.816866
510.000000	66.545933
508.500000	66.286551
507.000000	66.037569
505.500000	65.767548
504.000000	65.559633
502.500000	65.391949
501.000000	65.282223
499.500000	65.186475
498.000000	65.142372
496.500000	65.078963
495.000000	65.065978
493.500000	65.083198
492.000000	65.156272
490.500000	65.216141
489.000000	65.290293
487.500000	65.391698
486.000000	65.549062
484.500000	65.720816
483.000000	66.059442
481.500000	66.501514
480.000000	66.697613
478.500000	66.505559
477.000000	66.317670
475.500000	66.191258
474.000000	66.121396
472.500000	66.015381
471.000000	65.889381
469.500000	65.712070
468.000000	65.464194
466.500000	65.238232
465.000000	64.933395
463.500000	64.717778
462.000000	64.439147
460.500000	64.215721
459.000000	64.086572
457.500000	63.984773
456.000000	63.845493
454.500000	63.774756
453.000000	63.746690
451.500000	63.693185
450.000000	63.601383
448.500000	63.551790
447.000000	63.438447
445.500000	63.412029
444.000000	63.707661
442.500000	63.827297
441.000000	63.680058
439.500000	63.561733
438.000000	63.515623
436.500000	63.417698
435.000000	63.346362
433.500000	63.210321
432.000000	63.083356
430.500000	63.021114
429.000000	62.962838
427.500000	62.928744
426.000000	62.890017
424.500000	62.775232
423.000000	62.663848
421.500000	62.553193
420.000000	62.499566
418.500000	62.455336
417.000000	62.320751
415.500000	62.267928
414.000000	62.168698
412.500000	62.114780
411.000000	62.072008
409.500000	61.925338
408.000000	61.854403
406.500000	61.760302
405.000000	61.697250
403.500000	61.576252
402.000000	61.506109
400.500000	61.394683
399.000000	61.315722
397.500000	61.193252
396.000000	61.165421
394.500000	61.033827
393.000000	60.954302
391.500000	60.885896
390.000000	60.687463
388.500000	60.626885
387.000000	60.511707
385.500000	60.326914
384.000000	60.198428
382.500000	60.113099
381.000000	59.918173
379.500000	59.643423
378.000000	59.731157
376.500000	59.946670
375.000000	60.336832
373.500000	59.556176
372.000000	58.779553
370.500000	58.049440
369.000000	57.107205
367.500000	56.020030
366.000000	54.769014
364.500000	53.242504
363.000000	51.527031
361.500000	49.453159
360.000000	46.859774
358.500000	43.851059
357.000000	40.254532
355.500000	36.315947
354.000000	31.836418
352.500000	27.193253
351.000000	22.377384
349.500000	17.555624
348.000000	13.043021
346.500000	9.134601
345.000000	5.820119
343.500000	3.375074
342.000000	1.749176
340.500000	0.769697
339.000000	0.262957
337.500000	0.044521
336.000000	-0.015788
334.500000	-0.027321
333.000000	-0.024667
331.500000	-0.026283
330.000000	-0.024807
328.500000	-0.017424
327.000000	-0.024806
325.500000	-0.028774
324.000000	-0.023551
322.500000	-0.027639
321.000000	-0.029277
319.500000	-0.025472
318.000000	0.006214
316.500000	-0.022946
315.000000	-0.025305
313.500000	-0.029770
312.000000	-0.025710
310.500000	-0.019049
309.000000	-0.020391
307.500000	-0.011351
306.000000	-0.007862
304.500000	-0.002471
303.000000	-0.006179
301.500000	-0.006754
300.000000	-0.011327
