PE UV       SUBTECH     SPECTRUM    ASCII       PEDS        4.00        
   -1
Sample325.Sample.Raw.asc
21/03/25
15:54:25.00
21/03/25
15:54:25.00
Administrator

300.000000
1
Lambda 850
850L1710193
PerkinElmer UV WinLab 6.4.0.973 / 2.02.06 Lambda 800 UV/VIS, Jan 28 2016 16:58:34

0
0
2
0
0
UV/VIS
1
1
1
RBeamAtt,SBeamAtt,60mm sphere
0
0
0
0
Fix
 
0
0.2
0
0
0
 
 
 
0
 
0
340
0
Front
100
 
S:100 R:100
 
0
0
0
 
0
 
 
 
0
 
 
0
0
0
0
0
 
 
 
 
0
0


0
0
#HDR
-1
-1
#GR
nm
%T
1.0
0.0
750.000000
-1.500000
301
8
74.347605
-0.043727
#DATA
750.000000	74.002355
748.500000	74.335308
747.000000	74.302935
745.500000	74.347605
744.000000	74.316280
742.500000	74.253530
741.000000	74.299299
739.500000	74.152311
738.000000	74.257330
736.500000	74.314138
735.000000	74.150605
733.500000	74.105899
732.000000	74.147543
730.500000	74.131055
729.000000	74.050579
727.500000	74.006541
726.000000	73.997538
724.500000	73.986284
723.000000	74.203228
721.500000	74.011412
720.000000	74.003762
718.500000	73.959422
717.000000	73.993332
715.500000	73.895832
714.000000	73.868141
712.500000	73.790531
711.000000	73.870226
709.500000	73.850015
708.000000	73.800986
706.500000	73.768059
705.000000	73.854245
703.500000	73.629303
702.000000	73.763854
700.500000	73.705746
699.000000	73.613347
697.500000	73.684206
696.000000	73.683277
694.500000	73.686518
693.000000	73.564064
691.500000	73.488045
690.000000	73.381998
688.500000	73.564315
687.000000	73.585515
685.500000	73.562918
684.000000	73.494648
682.500000	73.417058
681.000000	73.317950
679.500000	73.398630
678.000000	73.301379
676.500000	73.293739
675.000000	73.303780
673.500000	73.318362
672.000000	73.230601
670.500000	73.278871
669.000000	73.155123
667.500000	73.123344
666.000000	73.119808
664.500000	73.047355
663.000000	72.941487
661.500000	73.014612
660.000000	72.897132
658.500000	72.785909
657.000000	72.810900
655.500000	72.758152
654.000000	72.729846
652.500000	72.644852
651.000000	72.609420
649.500000	72.520323
648.000000	72.494928
646.500000	72.529085
645.000000	72.441432
643.500000	72.391193
642.000000	72.320489
640.500000	72.277551
639.000000	72.174703
637.500000	72.133794
636.000000	72.039612
634.500000	71.996950
633.000000	71.914763
631.500000	71.871654
630.000000	71.808144
628.500000	71.788166
627.000000	71.695215
625.500000	71.633081
624.000000	71.584922
622.500000	71.493545
621.000000	71.494472
619.500000	71.377286
618.000000	71.253389
616.500000	71.203098
615.000000	71.107915
613.500000	71.100592
612.000000	71.074834
610.500000	70.918096
609.000000	70.816101
607.500000	70.806498
606.000000	70.755518
604.500000	70.671115
603.000000	70.576604
601.500000	70.481529
600.000000	70.400343
598.500000	70.394421
597.000000	70.270203
595.500000	70.175465
594.000000	70.150941
592.500000	70.065588
591.000000	69.987526
589.500000	69.915597
588.000000	69.837813
586.500000	69.739790
585.000000	69.658988
583.500000	69.667609
582.000000	69.620089
580.500000	69.502824
579.000000	69.401837
577.500000	69.301470
576.000000	69.252526
574.500000	69.221072
573.000000	69.192461
571.500000	69.113978
570.000000	68.984945
568.500000	68.912531
567.000000	68.817900
565.500000	68.695190
564.000000	68.651544
562.500000	68.631537
561.000000	68.719332
559.500000	68.783957
558.000000	68.728540
556.500000	68.703659
555.000000	68.657882
553.500000	68.580023
552.000000	68.538630
550.500000	68.499821
549.000000	68.432492
547.500000	68.413219
546.000000	68.408401
544.500000	68.367189
543.000000	68.336622
541.500000	68.334432
540.000000	68.288608
538.500000	68.224724
537.000000	68.214114
535.500000	68.214145
534.000000	68.205329
532.500000	68.194646
531.000000	68.165940
529.500000	68.124340
528.000000	68.109502
526.500000	68.084665
525.000000	68.033050
523.500000	67.987205
522.000000	67.924433
520.500000	67.822895
519.000000	67.711111
517.500000	67.579694
516.000000	67.432044
514.500000	67.231684
513.000000	67.002358
511.500000	66.721389
510.000000	66.445099
508.500000	66.193167
507.000000	65.885433
505.500000	65.642762
504.000000	65.436354
502.500000	65.291230
501.000000	65.137961
499.500000	65.014303
498.000000	64.966370
496.500000	64.963027
495.000000	64.927599
493.500000	64.956664
492.000000	65.015160
490.500000	65.055863
489.000000	65.114072
487.500000	65.234641
486.000000	65.360109
484.500000	65.584204
483.000000	65.957598
481.500000	66.337685
480.000000	66.557952
478.500000	66.417889
477.000000	66.213937
475.500000	66.117474
474.000000	66.049151
472.500000	65.962363
471.000000	65.818673
469.500000	65.617547
468.000000	65.414946
466.500000	65.151154
465.000000	64.871306
463.500000	64.625156
462.000000	64.387747
460.500000	64.152323
459.000000	63.984375
457.500000	63.872098
456.000000	63.709632
454.500000	63.626520
453.000000	63.546072
451.500000	63.452199
450.000000	63.401856
448.500000	63.340295
447.000000	63.225938
445.500000	63.223644
444.000000	63.393747
442.500000	63.445678
441.000000	63.423603
439.500000	63.287223
438.000000	63.192494
436.500000	63.088499
435.000000	63.015232
433.500000	62.961437
432.000000	62.847650
430.500000	62.782525
429.000000	62.677289
427.500000	62.591843
426.000000	62.504972
424.500000	62.378833
423.000000	62.335132
421.500000	62.243074
420.000000	62.132035
418.500000	62.058434
417.000000	61.915712
415.500000	61.831726
414.000000	61.707523
412.500000	61.686009
411.000000	61.554788
409.500000	61.482818
408.000000	61.283851
406.500000	61.224103
405.000000	61.159341
403.500000	60.964797
402.000000	60.959709
400.500000	60.780472
399.000000	60.759275
397.500000	60.673872
396.000000	60.488259
394.500000	60.460343
393.000000	60.334693
391.500000	60.165687
390.000000	60.126314
388.500000	59.894339
387.000000	59.797394
385.500000	59.697689
384.000000	59.439708
382.500000	59.354362
381.000000	59.174109
379.500000	58.898870
378.000000	58.714059
376.500000	59.326610
375.000000	59.597682
373.500000	58.659938
372.000000	57.946887
370.500000	57.155210
369.000000	56.224452
367.500000	55.153951
366.000000	53.932572
364.500000	52.622816
363.000000	50.727305
361.500000	48.776397
360.000000	46.303767
358.500000	43.476728
357.000000	40.078724
355.500000	36.305262
354.000000	32.034736
352.500000	27.559962
351.000000	22.818357
349.500000	18.169013
348.000000	13.684737
346.500000	9.663566
345.000000	6.342991
343.500000	3.787253
342.000000	2.018429
340.500000	0.926421
339.000000	0.303745
337.500000	0.038734
336.000000	-0.034294
334.500000	-0.034751
333.000000	-0.039364
331.500000	-0.040206
330.000000	-0.035403
328.500000	-0.035083
327.000000	-0.032829
325.500000	-0.043473
324.000000	-0.043727
322.500000	-0.036925
321.000000	-0.038560
319.500000	-0.037138
318.000000	0.001789
316.500000	-0.025016
315.000000	-0.026374
313.500000	-0.037261
312.000000	-0.031104
310.500000	-0.031325
309.000000	-0.026090
307.500000	-0.020811
306.000000	-0.019262
304.500000	-0.014905
303.000000	-0.015594
301.500000	-0.017993
300.000000	-0.024775
