PE UV       SUBTECH     SPECTRUM    ASCII       PEDS        4.00        
   -1
Sample322.Sample.Raw.asc
21/03/25
15:43:17.00
21/03/25
15:43:17.00
Administrator

300.000000
1
Lambda 850
850L1710193
PerkinElmer UV WinLab 6.4.0.973 / 2.02.06 Lambda 800 UV/VIS, Jan 28 2016 16:58:34

0
0
2
0
0
UV/VIS
1
1
1
RBeamAtt,SBeamAtt,60mm sphere
0
0
0
0
Fix
 
0
0.2
0
0
0
 
 
 
0
 
0
340
0
Front
100
 
S:100 R:100
 
0
0
0
 
0
 
 
 
0
 
 
0
0
0
0
0
 
 
 
 
0
0


0
0
#HDR
-1
-1
#GR
nm
%T
1.0
0.0
750.000000
-1.500000
301
8
69.923353
-0.034498
#DATA
750.000000	69.713060
748.500000	69.789278
747.000000	69.923353
745.500000	69.831340
744.000000	69.875007
742.500000	69.620093
741.000000	69.730979
739.500000	69.603469
738.000000	69.517714
736.500000	69.722671
735.000000	69.471921
733.500000	69.272068
732.000000	69.357821
730.500000	69.386798
729.000000	69.369226
727.500000	69.282897
726.000000	69.306745
724.500000	69.234959
723.000000	69.342231
721.500000	69.306588
720.000000	69.264563
718.500000	69.257286
717.000000	69.206587
715.500000	69.160251
714.000000	69.164633
712.500000	68.953224
711.000000	68.968100
709.500000	69.008781
708.000000	68.888040
706.500000	68.864102
705.000000	69.016660
703.500000	68.855851
702.000000	68.925683
700.500000	68.760501
699.000000	68.796667
697.500000	68.777510
696.000000	68.746766
694.500000	68.688914
693.000000	68.619589
691.500000	68.514868
690.000000	68.449945
688.500000	68.643534
687.000000	68.554094
685.500000	68.564446
684.000000	68.434827
682.500000	68.361089
681.000000	68.237481
679.500000	68.267982
678.000000	68.128367
676.500000	68.016494
675.000000	68.065111
673.500000	68.017555
672.000000	67.956489
670.500000	67.855408
669.000000	67.697201
667.500000	67.666564
666.000000	67.560208
664.500000	67.470354
663.000000	67.356638
661.500000	67.312810
660.000000	67.222355
658.500000	67.086062
657.000000	67.010203
655.500000	66.878799
654.000000	66.779456
652.500000	66.596570
651.000000	66.508146
649.500000	66.414277
648.000000	66.296849
646.500000	66.205939
645.000000	66.029595
643.500000	65.893986
642.000000	65.763324
640.500000	65.620739
639.000000	65.497165
637.500000	65.366495
636.000000	65.174675
634.500000	65.042188
633.000000	64.892218
631.500000	64.767073
630.000000	64.613340
628.500000	64.469417
627.000000	64.305646
625.500000	64.150178
624.000000	63.985217
622.500000	63.789258
621.000000	63.628544
619.500000	63.463129
618.000000	63.286699
616.500000	63.122023
615.000000	62.945259
613.500000	62.798415
612.000000	62.641103
610.500000	62.467033
609.000000	62.269489
607.500000	62.092347
606.000000	61.934703
604.500000	61.764767
603.000000	61.590647
601.500000	61.367519
600.000000	61.183937
598.500000	61.036785
597.000000	60.850529
595.500000	60.675311
594.000000	60.522327
592.500000	60.362719
591.000000	60.193885
589.500000	60.027363
588.000000	59.842514
586.500000	59.641686
585.000000	59.487606
583.500000	59.362393
582.000000	59.183835
580.500000	58.950666
579.000000	58.768872
577.500000	58.579889
576.000000	58.419945
574.500000	58.262811
573.000000	58.088611
571.500000	57.907368
570.000000	57.711539
568.500000	57.578782
567.000000	57.418487
565.500000	57.188865
564.000000	56.999766
562.500000	56.839674
561.000000	56.826977
559.500000	56.784373
558.000000	56.612739
556.500000	56.459888
555.000000	56.315630
553.500000	56.140603
552.000000	55.970538
550.500000	55.822235
549.000000	55.684431
547.500000	55.548902
546.000000	55.390368
544.500000	55.225116
543.000000	55.104738
541.500000	54.994290
540.000000	54.828273
538.500000	54.673138
537.000000	54.556223
535.500000	54.429523
534.000000	54.307796
532.500000	54.191011
531.000000	54.061075
529.500000	53.935989
528.000000	53.790242
526.500000	53.659244
525.000000	53.530390
523.500000	53.401790
522.000000	53.265201
520.500000	53.109642
519.000000	52.949234
517.500000	52.807701
516.000000	52.643168
514.500000	52.461527
513.000000	52.253923
511.500000	52.035363
510.000000	51.824938
508.500000	51.658488
507.000000	51.509456
505.500000	51.419891
504.000000	51.374306
502.500000	51.365321
501.000000	51.396896
499.500000	51.486780
498.000000	51.635668
496.500000	51.787914
495.000000	51.937817
493.500000	52.104480
492.000000	52.264832
490.500000	52.356681
489.000000	52.444599
487.500000	52.557140
486.000000	52.601408
484.500000	52.654031
483.000000	52.745554
481.500000	52.820732
480.000000	52.733638
478.500000	52.413604
477.000000	52.139724
475.500000	51.970803
474.000000	51.849914
472.500000	51.707151
471.000000	51.540815
469.500000	51.338909
468.000000	51.151238
466.500000	50.972583
465.000000	50.793577
463.500000	50.660877
462.000000	50.531217
460.500000	50.455546
459.000000	50.423673
457.500000	50.458286
456.000000	50.468051
454.500000	50.483338
453.000000	50.552239
451.500000	50.601336
450.000000	50.709775
448.500000	50.731509
447.000000	50.735107
445.500000	50.795455
444.000000	50.980685
442.500000	51.064271
441.000000	50.992529
439.500000	50.893933
438.000000	50.833482
436.500000	50.756679
435.000000	50.674155
433.500000	50.600341
432.000000	50.570969
430.500000	50.502955
429.000000	50.409715
427.500000	50.378597
426.000000	50.267157
424.500000	50.174569
423.000000	50.133958
421.500000	50.054067
420.000000	49.989752
418.500000	49.960987
417.000000	49.874370
415.500000	49.731671
414.000000	49.687001
412.500000	49.603726
411.000000	49.553892
409.500000	49.498619
408.000000	49.372306
406.500000	49.328743
405.000000	49.301895
403.500000	49.157635
402.000000	49.130331
400.500000	49.056530
399.000000	48.971939
397.500000	48.952637
396.000000	48.847056
394.500000	48.820068
393.000000	48.776354
391.500000	48.703645
390.000000	48.632688
388.500000	48.476362
387.000000	48.454311
385.500000	48.253622
384.000000	48.161198
382.500000	48.036457
381.000000	47.889191
379.500000	47.666535
378.000000	47.566750
376.500000	47.839990
375.000000	48.109793
373.500000	47.353237
372.000000	46.569986
370.500000	45.725501
369.000000	44.656311
367.500000	43.348699
366.000000	41.960826
364.500000	40.382857
363.000000	38.186575
361.500000	35.856999
360.000000	32.891446
358.500000	29.619188
357.000000	25.896453
355.500000	21.937022
354.000000	17.827772
352.500000	13.843352
351.000000	10.136885
349.500000	7.028476
348.000000	4.551080
346.500000	2.760637
345.000000	1.547566
343.500000	0.816080
342.000000	0.398431
340.500000	0.175526
339.000000	0.032614
337.500000	-0.014026
336.000000	-0.025372
334.500000	-0.012484
333.000000	-0.009678
331.500000	-0.011727
330.000000	-0.009154
328.500000	-0.002426
327.000000	-0.006622
325.500000	-0.021177
324.000000	-0.008129
322.500000	-0.019164
321.000000	-0.016846
319.500000	-0.015622
318.000000	-0.000471
316.500000	-0.029060
315.000000	-0.029671
313.500000	-0.033780
312.000000	-0.034498
310.500000	-0.032268
309.000000	-0.022120
307.500000	-0.013433
306.000000	-0.007306
304.500000	-0.015665
303.000000	-0.013597
301.500000	-0.016660
300.000000	-0.015056
