PE UV       SUBTECH     SPECTRUM    ASCII       PEDS        4.00        
   -1
Sample227.Sample.Raw.asc
21/02/05
14:27:27.00
21/02/05
14:27:27.00
Administrator

300.000000
1
Lambda 850
850L1710193
PerkinElmer UV WinLab 6.4.0.973 / 2.02.06 Lambda 800 UV/VIS, Jan 28 2016 16:58:34

0
0
2
0
0
UV/VIS
1
1
1
RBeamAtt,SBeamAtt,60mm sphere
0
0
0
0
Fix
 
0
0.2
0
0
0
 
 
 
0
 
0
340
0
Front
100
 
S:100 R:100
 
0
0
0
 
0
 
 
 
0
 
 
0
0
0
0
0
 
 
 
 
0
0


0
0
#HDR
-1
-1
#GR
nm
%T
1.0
0.0
750.000000
-1.500000
301
8
74.188439
-0.045783
#DATA
750.000000	73.724808
748.500000	74.124048
747.000000	74.025203
745.500000	73.993140
744.000000	73.940427
742.500000	74.105637
741.000000	74.188439
739.500000	74.186875
738.000000	74.029032
736.500000	74.144123
735.000000	74.033144
733.500000	73.968981
732.000000	73.949862
730.500000	74.070848
729.000000	73.907436
727.500000	73.948334
726.000000	73.935002
724.500000	73.906861
723.000000	73.983154
721.500000	73.799084
720.000000	73.867040
718.500000	73.784910
717.000000	73.915787
715.500000	73.936855
714.000000	73.828160
712.500000	73.796711
711.000000	73.778174
709.500000	73.764592
708.000000	73.833420
706.500000	73.870818
705.000000	73.905063
703.500000	73.815837
702.000000	73.758428
700.500000	73.710490
699.000000	73.829310
697.500000	73.787827
696.000000	73.624863
694.500000	73.683067
693.000000	73.636776
691.500000	73.696813
690.000000	73.436744
688.500000	73.714909
687.000000	73.681049
685.500000	73.590090
684.000000	73.635817
682.500000	73.603923
681.000000	73.598164
679.500000	73.662533
678.000000	73.598613
676.500000	73.582408
675.000000	73.558211
673.500000	73.544810
672.000000	73.517182
670.500000	73.483836
669.000000	73.499687
667.500000	73.484054
666.000000	73.400197
664.500000	73.405645
663.000000	73.414788
661.500000	73.444255
660.000000	73.437523
658.500000	73.344296
657.000000	73.335393
655.500000	73.368104
654.000000	73.367883
652.500000	73.345819
651.000000	73.229674
649.500000	73.270776
648.000000	73.311202
646.500000	73.334897
645.000000	73.316552
643.500000	73.217069
642.000000	73.248797
640.500000	73.230111
639.000000	73.227251
637.500000	73.171396
636.000000	73.161220
634.500000	73.128691
633.000000	73.098029
631.500000	73.135557
630.000000	73.106586
628.500000	73.066992
627.000000	73.016953
625.500000	73.005897
624.000000	73.019347
622.500000	73.015749
621.000000	72.989685
619.500000	72.977926
618.000000	72.968569
616.500000	72.928088
615.000000	72.836356
613.500000	72.842244
612.000000	72.857277
610.500000	72.872551
609.000000	72.818378
607.500000	72.769616
606.000000	72.779380
604.500000	72.763627
603.000000	72.722411
601.500000	72.708758
600.000000	72.708410
598.500000	72.710359
597.000000	72.650289
595.500000	72.588148
594.000000	72.572347
592.500000	72.567937
591.000000	72.555472
589.500000	72.517526
588.000000	72.537171
586.500000	72.515238
585.000000	72.484729
583.500000	72.476934
582.000000	72.433870
580.500000	72.393143
579.000000	72.341568
577.500000	72.318952
576.000000	72.294241
574.500000	72.257069
573.000000	72.224679
571.500000	72.185628
570.000000	72.193214
568.500000	72.186169
567.000000	72.164208
565.500000	72.083777
564.000000	71.967801
562.500000	71.948649
561.000000	72.105828
559.500000	72.232343
558.000000	72.189377
556.500000	72.179585
555.000000	72.199657
553.500000	72.143187
552.000000	72.116772
550.500000	72.089158
549.000000	72.042723
547.500000	72.023893
546.000000	72.003781
544.500000	71.974814
543.000000	71.941475
541.500000	71.918038
540.000000	71.888573
538.500000	71.862050
537.000000	71.882903
535.500000	71.882758
534.000000	71.861505
532.500000	71.822691
531.000000	71.790490
529.500000	71.781849
528.000000	71.753549
526.500000	71.705539
525.000000	71.651853
523.500000	71.583198
522.000000	71.511674
520.500000	71.438826
519.000000	71.337260
517.500000	71.239020
516.000000	71.089445
514.500000	70.878618
513.000000	70.666202
511.500000	70.451990
510.000000	70.206955
508.500000	69.949318
507.000000	69.719406
505.500000	69.562967
504.000000	69.455080
502.500000	69.408654
501.000000	69.369602
499.500000	69.430583
498.000000	69.518852
496.500000	69.622703
495.000000	69.736429
493.500000	69.863783
492.000000	70.017538
490.500000	70.183815
489.000000	70.323491
487.500000	70.463489
486.000000	70.613772
484.500000	70.755657
483.000000	71.018011
481.500000	71.328062
480.000000	71.336378
478.500000	71.033853
477.000000	70.780555
475.500000	70.627282
474.000000	70.478720
472.500000	70.309698
471.000000	70.136968
469.500000	69.962985
468.000000	69.712847
466.500000	69.462194
465.000000	69.189903
463.500000	68.946232
462.000000	68.734584
460.500000	68.613530
459.000000	68.544881
457.500000	68.455943
456.000000	68.476580
454.500000	68.462634
453.000000	68.476662
451.500000	68.459405
450.000000	68.481922
448.500000	68.519262
447.000000	68.539113
445.500000	68.560570
444.000000	68.804807
442.500000	68.954121
441.000000	68.865802
439.500000	68.751916
438.000000	68.671076
436.500000	68.564877
435.000000	68.506409
433.500000	68.477313
432.000000	68.371207
430.500000	68.312521
429.000000	68.251965
427.500000	68.215852
426.000000	68.078057
424.500000	67.976867
423.000000	67.876755
421.500000	67.836485
420.000000	67.779872
418.500000	67.658421
417.000000	67.537251
415.500000	67.402491
414.000000	67.302224
412.500000	67.304012
411.000000	67.151388
409.500000	67.041115
408.000000	66.924348
406.500000	66.820839
405.000000	66.727318
403.500000	66.630308
402.000000	66.549612
400.500000	66.447219
399.000000	66.212567
397.500000	66.098701
396.000000	66.011427
394.500000	65.758276
393.000000	65.607001
391.500000	65.438319
390.000000	65.369650
388.500000	65.140421
387.000000	64.898223
385.500000	64.725901
384.000000	64.391360
382.500000	64.207241
381.000000	63.766627
379.500000	63.375373
378.000000	63.175185
376.500000	63.747551
375.000000	63.448900
373.500000	62.430966
372.000000	61.316552
370.500000	60.025974
369.000000	58.637191
367.500000	56.847361
366.000000	54.979247
364.500000	52.562109
363.000000	49.824637
361.500000	46.465214
360.000000	42.690999
358.500000	38.454098
357.000000	33.610356
355.500000	28.421933
354.000000	23.050336
352.500000	17.853914
351.000000	13.155560
349.500000	9.024523
348.000000	5.882543
346.500000	3.539669
345.000000	2.017721
343.500000	1.064547
342.000000	0.526807
340.500000	0.225533
339.000000	0.068705
337.500000	-0.010694
336.000000	-0.030080
334.500000	-0.009656
333.000000	-0.023145
331.500000	-0.045783
330.000000	-0.031183
328.500000	-0.024305
327.000000	-0.022448
325.500000	-0.029017
324.000000	-0.029191
322.500000	-0.025108
321.000000	-0.035176
319.500000	-0.024592
318.000000	0.014598
316.500000	-0.022261
315.000000	-0.024450
313.500000	-0.023991
312.000000	-0.029259
310.500000	-0.028734
309.000000	-0.025731
307.500000	-0.012287
306.000000	-0.016484
304.500000	-0.011203
303.000000	-0.009310
301.500000	-0.014641
300.000000	-0.013880
