PE UV       SUBTECH     SPECTRUM    ASCII       PEDS        4.00        
   -1
Sample173.Sample.Raw.asc
21/01/27
14:44:57.00
21/01/27
14:44:57.00
Administrator

300.000000
1
Lambda 850
850L1710193
PerkinElmer UV WinLab 6.4.0.973 / 2.02.06 Lambda 800 UV/VIS, Jan 28 2016 16:58:34

0
0
2
0
0
UV/VIS
1
1
1
RBeamAtt,SBeamAtt,60mm sphere
0
0
0
0
Fix
 
0
0.2
0
0
0
 
 
 
0
 
0
319.2
0
Front
100
 
S:100 R:100
 
0
0
0
 
0
 
 
 
0
 
 
0
0
0
0
0
 
 
 
 
0
0


0
0
#HDR
-1
-1
#GR
nm
%T
1.0
0.0
750.000000
-1.500000
301
8
74.746309
-0.030135
#DATA
750.000000	74.424219
748.500000	74.660045
747.000000	74.715796
745.500000	74.725802
744.000000	74.628550
742.500000	74.550207
741.000000	74.599545
739.500000	74.592804
738.000000	74.587410
736.500000	74.637511
735.000000	74.746309
733.500000	74.613677
732.000000	74.516760
730.500000	74.522767
729.000000	74.514032
727.500000	74.526677
726.000000	74.495180
724.500000	74.559215
723.000000	74.401081
721.500000	74.519892
720.000000	74.345190
718.500000	74.323257
717.000000	74.405466
715.500000	74.324905
714.000000	74.405156
712.500000	74.377510
711.000000	74.280815
709.500000	74.212915
708.000000	74.234790
706.500000	74.203257
705.000000	74.327137
703.500000	74.153451
702.000000	74.277037
700.500000	74.148407
699.000000	74.222960
697.500000	74.184144
696.000000	74.025587
694.500000	74.129813
693.000000	74.144131
691.500000	74.050767
690.000000	73.917286
688.500000	74.058746
687.000000	74.012886
685.500000	74.046322
684.000000	74.052961
682.500000	74.025413
681.000000	73.931584
679.500000	73.898716
678.000000	73.948037
676.500000	73.929228
675.000000	73.951791
673.500000	73.899267
672.000000	73.904274
670.500000	73.874315
669.000000	73.879515
667.500000	73.712410
666.000000	73.763926
664.500000	73.714102
663.000000	73.654583
661.500000	73.640528
660.000000	73.660964
658.500000	73.594157
657.000000	73.565468
655.500000	73.514237
654.000000	73.476057
652.500000	73.407655
651.000000	73.446608
649.500000	73.380047
648.000000	73.368221
646.500000	73.278956
645.000000	73.281406
643.500000	73.298138
642.000000	73.196818
640.500000	73.167553
639.000000	73.104041
637.500000	73.084953
636.000000	73.030669
634.500000	73.011672
633.000000	72.936855
631.500000	72.866682
630.000000	72.868138
628.500000	72.843683
627.000000	72.755091
625.500000	72.722628
624.000000	72.651962
622.500000	72.635128
621.000000	72.637715
619.500000	72.551883
618.000000	72.456240
616.500000	72.448433
615.000000	72.409241
613.500000	72.372630
612.000000	72.293626
610.500000	72.241904
609.000000	72.152464
607.500000	72.100901
606.000000	72.095458
604.500000	72.088238
603.000000	72.008457
601.500000	71.952595
600.000000	71.914927
598.500000	71.837186
597.000000	71.779777
595.500000	71.707203
594.000000	71.636869
592.500000	71.584620
591.000000	71.523126
589.500000	71.521527
588.000000	71.510143
586.500000	71.434606
585.000000	71.374308
583.500000	71.330082
582.000000	71.284662
580.500000	71.221856
579.000000	71.187261
577.500000	71.157792
576.000000	71.079474
574.500000	70.977759
573.000000	70.971407
571.500000	70.924598
570.000000	70.841427
568.500000	70.732971
567.000000	70.690561
565.500000	70.630768
564.000000	70.568314
562.500000	70.539072
561.000000	70.613357
559.500000	70.721762
558.000000	70.722451
556.500000	70.671434
555.000000	70.641932
553.500000	70.634130
552.000000	70.616260
550.500000	70.581016
549.000000	70.516111
547.500000	70.468195
546.000000	70.481116
544.500000	70.476293
543.000000	70.400970
541.500000	70.382053
540.000000	70.370230
538.500000	70.325073
537.000000	70.320524
535.500000	70.326263
534.000000	70.315171
532.500000	70.299194
531.000000	70.284709
529.500000	70.282380
528.000000	70.257050
526.500000	70.228080
525.000000	70.189719
523.500000	70.131644
522.000000	70.078756
520.500000	70.019997
519.000000	69.926639
517.500000	69.789110
516.000000	69.607708
514.500000	69.422400
513.000000	69.218306
511.500000	68.952789
510.000000	68.696111
508.500000	68.457830
507.000000	68.176946
505.500000	67.929083
504.000000	67.755887
502.500000	67.633746
501.000000	67.533384
499.500000	67.462081
498.000000	67.395486
496.500000	67.422065
495.000000	67.441519
493.500000	67.479542
492.000000	67.571900
490.500000	67.696920
489.000000	67.785983
487.500000	67.877591
486.000000	68.033056
484.500000	68.181678
483.000000	68.583125
481.500000	68.984450
480.000000	69.150968
478.500000	68.977638
477.000000	68.769297
475.500000	68.665652
474.000000	68.570191
472.500000	68.462992
471.000000	68.330843
469.500000	68.116476
468.000000	67.890903
466.500000	67.647690
465.000000	67.404368
463.500000	67.117158
462.000000	66.895147
460.500000	66.693795
459.000000	66.564053
457.500000	66.490608
456.000000	66.394833
454.500000	66.315505
453.000000	66.279008
451.500000	66.230718
450.000000	66.195525
448.500000	66.120613
447.000000	66.090584
445.500000	66.050831
444.000000	66.259026
442.500000	66.469818
441.000000	66.332263
439.500000	66.202926
438.000000	66.079587
436.500000	66.028233
435.000000	65.957925
433.500000	65.929018
432.000000	65.856820
430.500000	65.771207
429.000000	65.740462
427.500000	65.647225
426.000000	65.479622
424.500000	65.429592
423.000000	65.395110
421.500000	65.288520
420.000000	65.173960
418.500000	65.182900
417.000000	65.128030
415.500000	65.059395
414.000000	64.918378
412.500000	64.832617
411.000000	64.750861
409.500000	64.702493
408.000000	64.555703
406.500000	64.491193
405.000000	64.457268
403.500000	64.299802
402.000000	64.221777
400.500000	64.120967
399.000000	64.095817
397.500000	63.973912
396.000000	63.889725
394.500000	63.782828
393.000000	63.685095
391.500000	63.526213
390.000000	63.423124
388.500000	63.320702
387.000000	63.204064
385.500000	63.049544
384.000000	62.869380
382.500000	62.706344
381.000000	62.444453
379.500000	62.289408
378.000000	62.222018
376.500000	62.669770
375.000000	62.761181
373.500000	62.044525
372.000000	61.351156
370.500000	60.237479
369.000000	59.245595
367.500000	58.086395
366.000000	56.568772
364.500000	54.893724
363.000000	52.979892
361.500000	50.525017
360.000000	47.591170
358.500000	44.090692
357.000000	40.232105
355.500000	35.845511
354.000000	31.057406
352.500000	26.013530
351.000000	20.856732
349.500000	15.931114
348.000000	11.439640
346.500000	7.653658
345.000000	4.643760
343.500000	2.543257
342.000000	1.208405
340.500000	0.497105
339.000000	0.183958
337.500000	0.069889
336.000000	0.050912
334.500000	0.039560
333.000000	0.042287
331.500000	0.043690
330.000000	0.045645
328.500000	0.046056
327.000000	0.049300
325.500000	0.042923
324.000000	0.051991
322.500000	0.052728
321.000000	0.055941
319.500000	0.047834
318.000000	0.002450
316.500000	-0.022374
315.000000	-0.025763
313.500000	-0.030135
312.000000	-0.023750
310.500000	-0.025388
309.000000	-0.025697
307.500000	-0.013841
306.000000	-0.005697
304.500000	-0.002760
303.000000	-0.010949
301.500000	-0.009342
300.000000	-0.012578
