PE UV       SUBTECH     SPECTRUM    ASCII       PEDS        4.00        
   -1
Sample16.Sample.Raw.asc
21/03/30
11:55:39.00
21/03/30
11:55:39.00
Administrator

300.000000
1
Lambda 850
850L1710193
PerkinElmer UV WinLab 6.4.0.973 / 2.02.06 Lambda 800 UV/VIS, Jan 28 2016 16:58:34

0
0
2
0
0
UV/VIS
1
1
1
RBeamAtt,SBeamAtt,60mm sphere
0
0
0
0
Fix
 
0
0.2
0
0
0
 
 
 
0
 
0
340
0
Front
100
 
S:100 R:100
 
0
0
0
 
0
 
 
 
0
 
 
0
0
0
0
0
 
 
 
 
0
0


0
0
#HDR
-1
-1
#GR
nm
%T
1.0
0.0
750.000000
-1.500000
301
8
72.668737
-0.031017
#DATA
750.000000	72.302133
748.500000	72.440985
747.000000	72.668737
745.500000	72.471685
744.000000	72.389346
742.500000	72.567230
741.000000	72.387477
739.500000	72.264807
738.000000	72.381264
736.500000	72.317649
735.000000	72.306117
733.500000	72.268049
732.000000	72.395356
730.500000	72.282760
729.000000	72.252034
727.500000	72.284137
726.000000	72.265887
724.500000	72.183920
723.000000	72.236403
721.500000	72.260964
720.000000	72.077857
718.500000	72.172890
717.000000	72.124567
715.500000	72.038634
714.000000	72.168862
712.500000	72.110260
711.000000	72.013224
709.500000	71.969601
708.000000	72.004905
706.500000	71.914643
705.000000	71.954600
703.500000	71.954450
702.000000	71.966097
700.500000	71.922411
699.000000	71.954978
697.500000	71.908111
696.000000	71.936446
694.500000	71.821640
693.000000	71.800004
691.500000	71.817496
690.000000	71.664301
688.500000	71.732323
687.000000	71.704154
685.500000	71.740360
684.000000	71.749491
682.500000	71.674291
681.000000	71.714011
679.500000	71.663374
678.000000	71.614827
676.500000	71.518529
675.000000	71.483392
673.500000	71.450052
672.000000	71.480975
670.500000	71.374914
669.000000	71.379404
667.500000	71.331075
666.000000	71.288799
664.500000	71.208981
663.000000	71.160443
661.500000	71.113996
660.000000	71.033594
658.500000	70.982221
657.000000	70.904109
655.500000	70.916185
654.000000	70.855327
652.500000	70.818597
651.000000	70.709521
649.500000	70.635472
648.000000	70.628769
646.500000	70.566118
645.000000	70.511149
643.500000	70.445945
642.000000	70.390061
640.500000	70.331504
639.000000	70.292945
637.500000	70.188021
636.000000	70.065768
634.500000	70.017140
633.000000	69.988354
631.500000	69.903775
630.000000	69.782232
628.500000	69.677643
627.000000	69.625935
625.500000	69.560764
624.000000	69.438245
622.500000	69.394792
621.000000	69.324206
619.500000	69.226143
618.000000	69.140455
616.500000	69.063640
615.000000	68.991936
613.500000	68.846565
612.000000	68.735581
610.500000	68.681462
609.000000	68.629748
607.500000	68.551817
606.000000	68.439528
604.500000	68.378394
603.000000	68.301855
601.500000	68.167885
600.000000	68.057799
598.500000	67.950502
597.000000	67.876146
595.500000	67.785594
594.000000	67.696384
592.500000	67.626302
591.000000	67.581190
589.500000	67.480947
588.000000	67.394890
586.500000	67.304162
585.000000	67.200189
583.500000	67.109977
582.000000	67.005569
580.500000	66.925675
579.000000	66.853081
577.500000	66.699533
576.000000	66.594008
574.500000	66.536394
573.000000	66.434257
571.500000	66.332125
570.000000	66.245095
568.500000	66.150556
567.000000	66.032620
565.500000	65.913927
564.000000	65.805528
562.500000	65.709244
561.000000	65.778117
559.500000	65.841908
558.000000	65.765828
556.500000	65.668223
555.000000	65.561509
553.500000	65.467824
552.000000	65.388991
550.500000	65.324591
549.000000	65.214587
547.500000	65.143699
546.000000	65.048476
544.500000	64.951850
543.000000	64.923119
541.500000	64.876612
540.000000	64.756764
538.500000	64.650013
537.000000	64.595569
535.500000	64.544343
534.000000	64.462663
532.500000	64.372832
531.000000	64.320903
529.500000	64.238159
528.000000	64.163631
526.500000	64.115171
525.000000	64.017758
523.500000	63.905921
522.000000	63.795632
520.500000	63.694941
519.000000	63.562865
517.500000	63.434481
516.000000	63.279845
514.500000	63.097776
513.000000	62.884168
511.500000	62.647186
510.000000	62.419447
508.500000	62.232593
507.000000	62.063529
505.500000	61.887520
504.000000	61.792597
502.500000	61.768880
501.000000	61.781674
499.500000	61.841533
498.000000	61.942313
496.500000	62.033953
495.000000	62.189229
493.500000	62.366345
492.000000	62.504681
490.500000	62.640326
489.000000	62.747204
487.500000	62.848834
486.000000	62.981593
484.500000	63.076069
483.000000	63.289902
481.500000	63.506773
480.000000	63.484794
478.500000	63.146038
477.000000	62.868164
475.500000	62.644982
474.000000	62.551432
472.500000	62.374428
471.000000	62.207130
469.500000	62.006900
468.000000	61.794949
466.500000	61.590009
465.000000	61.310867
463.500000	61.143837
462.000000	60.917988
460.500000	60.804378
459.000000	60.793675
457.500000	60.783773
456.000000	60.794230
454.500000	60.819354
453.000000	60.847536
451.500000	60.892161
450.000000	60.925087
448.500000	60.945935
447.000000	60.952421
445.500000	60.966765
444.000000	61.252408
442.500000	61.346612
441.000000	61.280667
439.500000	61.126634
438.000000	61.115083
436.500000	60.988162
435.000000	60.890077
433.500000	60.840656
432.000000	60.748838
430.500000	60.662077
429.000000	60.634487
427.500000	60.532096
426.000000	60.506883
424.500000	60.436484
423.000000	60.281313
421.500000	60.247784
420.000000	60.192644
418.500000	60.045088
417.000000	59.967251
415.500000	59.909503
414.000000	59.809691
412.500000	59.749021
411.000000	59.746492
409.500000	59.599577
408.000000	59.504565
406.500000	59.361879
405.000000	59.270694
403.500000	59.243336
402.000000	59.109888
400.500000	59.020312
399.000000	58.931745
397.500000	58.816963
396.000000	58.760550
394.500000	58.683086
393.000000	58.546369
391.500000	58.409438
390.000000	58.264276
388.500000	58.095249
387.000000	57.894083
385.500000	57.808594
384.000000	57.634790
382.500000	57.418452
381.000000	57.186902
379.500000	56.881795
378.000000	56.696218
376.500000	56.989636
375.000000	57.268247
373.500000	56.409866
372.000000	55.431422
370.500000	54.373543
369.000000	53.272489
367.500000	51.909117
366.000000	50.214852
364.500000	48.241069
363.000000	45.881967
361.500000	43.052666
360.000000	39.793889
358.500000	35.875879
357.000000	31.625657
355.500000	27.078090
354.000000	22.152794
352.500000	17.394826
351.000000	12.902658
349.500000	9.083006
348.000000	5.974648
346.500000	3.659569
345.000000	2.095062
343.500000	1.124131
342.000000	0.558602
340.500000	0.259842
339.000000	0.063418
337.500000	-0.009925
336.000000	-0.024796
334.500000	-0.021931
333.000000	-0.024853
331.500000	-0.028054
330.000000	-0.027418
328.500000	-0.024318
327.000000	-0.025366
325.500000	-0.031017
324.000000	-0.022055
322.500000	-0.025492
321.000000	-0.028903
319.500000	-0.023037
318.000000	0.004331
316.500000	-0.024451
315.000000	-0.025493
313.500000	-0.026567
312.000000	-0.024485
310.500000	-0.023482
309.000000	-0.020674
307.500000	-0.013432
306.000000	-0.005683
304.500000	-0.005702
303.000000	-0.008175
301.500000	-0.014460
300.000000	-0.008947
