PE UV       SUBTECH     SPECTRUM    ASCII       PEDS        4.00        
   -1
Sample96.Sample.Raw.asc
20/12/16
17:20:04.00
20/12/16
17:20:04.00
Administrator

300.000000
1
Lambda 850
850L1710193
PerkinElmer UV WinLab 6.4.0.973 / 2.02.06 Lambda 800 UV/VIS, Jan 28 2016 16:58:34

0
0
2
0
0
UV/VIS
1
1
1
RBeamAtt,SBeamAtt,60mm sphere
0
0
0
0
Fix
 
0
0.2
0
0
0
 
 
 
0
 
0
319.2
0
Front
100
 
S:100 R:100
 
0
0
0
 
0
 
 
 
0
 
 
0
0
0
0
0
 
 
 
 
0
0


0
0
#HDR
-1
-1
#GR
nm
%T
1.0
0.0
750.000000
-1.500000
301
8
74.515395
-0.039207
#DATA
750.000000	74.031948
748.500000	74.515395
747.000000	74.329112
745.500000	74.281303
744.000000	74.315403
742.500000	74.228803
741.000000	74.294267
739.500000	74.142216
738.000000	74.219315
736.500000	74.299599
735.000000	74.220276
733.500000	74.300521
732.000000	74.327585
730.500000	74.176774
729.000000	74.179050
727.500000	74.234361
726.000000	74.206858
724.500000	74.160685
723.000000	74.190986
721.500000	74.257188
720.000000	74.249630
718.500000	74.152385
717.000000	74.137953
715.500000	74.028823
714.000000	74.145095
712.500000	74.120163
711.000000	74.135672
709.500000	74.020719
708.000000	74.200349
706.500000	74.092449
705.000000	74.126944
703.500000	74.052112
702.000000	74.049847
700.500000	74.155772
699.000000	74.000941
697.500000	73.907977
696.000000	74.010895
694.500000	73.905263
693.000000	73.965103
691.500000	73.911606
690.000000	73.749484
688.500000	74.040582
687.000000	73.952533
685.500000	73.848840
684.000000	73.937374
682.500000	73.842029
681.000000	73.921206
679.500000	73.992496
678.000000	73.884659
676.500000	73.795519
675.000000	73.849283
673.500000	73.862366
672.000000	73.742893
670.500000	73.806637
669.000000	73.817458
667.500000	73.729791
666.000000	73.727530
664.500000	73.721739
663.000000	73.714210
661.500000	73.687946
660.000000	73.735686
658.500000	73.712999
657.000000	73.633094
655.500000	73.678595
654.000000	73.652048
652.500000	73.683181
651.000000	73.621994
649.500000	73.637709
648.000000	73.599136
646.500000	73.597238
645.000000	73.594541
643.500000	73.577029
642.000000	73.500445
640.500000	73.503880
639.000000	73.528306
637.500000	73.478675
636.000000	73.500559
634.500000	73.463788
633.000000	73.452680
631.500000	73.420412
630.000000	73.423482
628.500000	73.388386
627.000000	73.402137
625.500000	73.409929
624.000000	73.311701
622.500000	73.342681
621.000000	73.352935
619.500000	73.299125
618.000000	73.268840
616.500000	73.241226
615.000000	73.282554
613.500000	73.252217
612.000000	73.177098
610.500000	73.150199
609.000000	73.201780
607.500000	73.203821
606.000000	73.159836
604.500000	73.166017
603.000000	73.149833
601.500000	73.087972
600.000000	73.021636
598.500000	72.985921
597.000000	72.975377
595.500000	72.974077
594.000000	72.903958
592.500000	72.857390
591.000000	72.834060
589.500000	72.851205
588.000000	72.822893
586.500000	72.807457
585.000000	72.774159
583.500000	72.727475
582.000000	72.724715
580.500000	72.709010
579.000000	72.710798
577.500000	72.703739
576.000000	72.642146
574.500000	72.609607
573.000000	72.603066
571.500000	72.560887
570.000000	72.538692
568.500000	72.504087
567.000000	72.436837
565.500000	72.391953
564.000000	72.356824
562.500000	72.299137
561.000000	72.440459
559.500000	72.583443
558.000000	72.512888
556.500000	72.512227
555.000000	72.513872
553.500000	72.453457
552.000000	72.425355
550.500000	72.408365
549.000000	72.395894
547.500000	72.363697
546.000000	72.324163
544.500000	72.334116
543.000000	72.326544
541.500000	72.284782
540.000000	72.235407
538.500000	72.231474
537.000000	72.228848
535.500000	72.194312
534.000000	72.194574
532.500000	72.190001
531.000000	72.160957
529.500000	72.148118
528.000000	72.118749
526.500000	72.099211
525.000000	72.035109
523.500000	71.951292
522.000000	71.885166
520.500000	71.803316
519.000000	71.668320
517.500000	71.561775
516.000000	71.415273
514.500000	71.232035
513.000000	71.006719
511.500000	70.757942
510.000000	70.528687
508.500000	70.294543
507.000000	70.038817
505.500000	69.866937
504.000000	69.757983
502.500000	69.721109
501.000000	69.706921
499.500000	69.710083
498.000000	69.817799
496.500000	69.909034
495.000000	69.989275
493.500000	70.183119
492.000000	70.341390
490.500000	70.448337
489.000000	70.572270
487.500000	70.755046
486.000000	70.860063
484.500000	71.009608
483.000000	71.320612
481.500000	71.649493
480.000000	71.662789
478.500000	71.374464
477.000000	71.076945
475.500000	70.918657
474.000000	70.757878
472.500000	70.610704
471.000000	70.424906
469.500000	70.237931
468.000000	69.998223
466.500000	69.723136
465.000000	69.409988
463.500000	69.169379
462.000000	68.993241
460.500000	68.845028
459.000000	68.705560
457.500000	68.606631
456.000000	68.602706
454.500000	68.602573
453.000000	68.638993
451.500000	68.663854
450.000000	68.663346
448.500000	68.656914
447.000000	68.652316
445.500000	68.762346
444.000000	69.082558
442.500000	69.176417
441.000000	69.119343
439.500000	69.018994
438.000000	68.897469
436.500000	68.803673
435.000000	68.749963
433.500000	68.662849
432.000000	68.644763
430.500000	68.516736
429.000000	68.453704
427.500000	68.432546
426.000000	68.364295
424.500000	68.279023
423.000000	68.128511
421.500000	68.081280
420.000000	68.022952
418.500000	68.005954
417.000000	67.963223
415.500000	67.773085
414.000000	67.651549
412.500000	67.544565
411.000000	67.485952
409.500000	67.393902
408.000000	67.200920
406.500000	67.191611
405.000000	67.066424
403.500000	66.924574
402.000000	66.749846
400.500000	66.699922
399.000000	66.587520
397.500000	66.383980
396.000000	66.217875
394.500000	66.114612
393.000000	65.984348
391.500000	65.750218
390.000000	65.572260
388.500000	65.337225
387.000000	65.127170
385.500000	64.896849
384.000000	64.626785
382.500000	64.385222
381.000000	63.970161
379.500000	63.516018
378.000000	63.285614
376.500000	63.644329
375.000000	63.524883
373.500000	62.413748
372.000000	61.390296
370.500000	60.050117
369.000000	58.512322
367.500000	56.707412
366.000000	54.606415
364.500000	52.141249
363.000000	49.263937
361.500000	46.002492
360.000000	42.130562
358.500000	37.744882
357.000000	32.957912
355.500000	27.852208
354.000000	22.531052
352.500000	17.429846
351.000000	12.821984
349.500000	8.874133
348.000000	5.726180
346.500000	3.479673
345.000000	1.978755
343.500000	1.046617
342.000000	0.500100
340.500000	0.222594
339.000000	0.092376
337.500000	0.041786
336.000000	0.026288
334.500000	0.021557
333.000000	0.025959
331.500000	0.023788
330.000000	0.017819
328.500000	0.027703
327.000000	0.032112
325.500000	0.028169
324.000000	0.023565
322.500000	0.027806
321.000000	0.042646
319.500000	0.040743
318.000000	0.001598
316.500000	-0.033223
315.000000	-0.037080
313.500000	-0.033737
312.000000	-0.033235
310.500000	-0.039207
309.000000	-0.023943
307.500000	-0.017569
306.000000	-0.013719
304.500000	-0.011285
303.000000	-0.009206
301.500000	-0.014161
300.000000	-0.019881
