PE UV       SUBTECH     SPECTRUM    ASCII       PEDS        4.00        
   -1
Sample95.Sample.Raw.asc
20/12/16
17:16:57.00
20/12/16
17:16:57.00
Administrator

300.000000
1
Lambda 850
850L1710193
PerkinElmer UV WinLab 6.4.0.973 / 2.02.06 Lambda 800 UV/VIS, Jan 28 2016 16:58:34

0
0
2
0
0
UV/VIS
1
1
1
RBeamAtt,SBeamAtt,60mm sphere
0
0
0
0
Fix
 
0
0.2
0
0
0
 
 
 
0
 
0
319.2
0
Front
100
 
S:100 R:100
 
0
0
0
 
0
 
 
 
0
 
 
0
0
0
0
0
 
 
 
 
0
0


0
0
#HDR
-1
-1
#GR
nm
%T
1.0
0.0
750.000000
-1.500000
301
8
75.760939
-0.032953
#DATA
750.000000	75.303889
748.500000	75.760939
747.000000	75.466985
745.500000	75.690612
744.000000	75.582146
742.500000	75.505314
741.000000	75.557306
739.500000	75.324849
738.000000	75.395644
736.500000	75.441610
735.000000	75.526924
733.500000	75.453928
732.000000	75.504529
730.500000	75.329715
729.000000	75.314251
727.500000	75.378918
726.000000	75.456466
724.500000	75.461011
723.000000	75.312552
721.500000	75.454850
720.000000	75.393585
718.500000	75.319728
717.000000	75.317250
715.500000	75.138600
714.000000	75.306086
712.500000	75.346408
711.000000	75.279677
709.500000	75.175896
708.000000	75.306771
706.500000	75.184914
705.000000	75.271732
703.500000	75.209881
702.000000	75.200522
700.500000	75.243261
699.000000	75.146822
697.500000	75.189227
696.000000	75.183485
694.500000	75.075083
693.000000	75.156103
691.500000	75.030413
690.000000	74.956121
688.500000	75.245964
687.000000	75.177429
685.500000	75.074520
684.000000	75.054042
682.500000	75.045854
681.000000	75.146672
679.500000	75.208822
678.000000	75.016550
676.500000	75.013982
675.000000	75.114198
673.500000	75.015317
672.000000	74.904819
670.500000	74.958207
669.000000	74.949350
667.500000	74.909895
666.000000	74.896174
664.500000	74.894246
663.000000	74.840902
661.500000	74.835060
660.000000	74.916827
658.500000	74.867976
657.000000	74.762412
655.500000	74.806918
654.000000	74.795488
652.500000	74.806187
651.000000	74.756419
649.500000	74.750025
648.000000	74.690362
646.500000	74.696117
645.000000	74.671476
643.500000	74.726334
642.000000	74.693209
640.500000	74.624391
639.000000	74.646924
637.500000	74.655769
636.000000	74.622248
634.500000	74.604833
633.000000	74.622895
631.500000	74.582435
630.000000	74.528537
628.500000	74.510526
627.000000	74.544533
625.500000	74.535706
624.000000	74.516331
622.500000	74.527411
621.000000	74.564128
619.500000	74.516336
618.000000	74.455573
616.500000	74.400507
615.000000	74.427532
613.500000	74.424181
612.000000	74.355789
610.500000	74.325242
609.000000	74.343346
607.500000	74.328763
606.000000	74.291578
604.500000	74.325473
603.000000	74.298335
601.500000	74.255682
600.000000	74.237441
598.500000	74.250927
597.000000	74.205937
595.500000	74.129048
594.000000	74.098538
592.500000	74.085050
591.000000	74.047727
589.500000	74.066993
588.000000	74.069417
586.500000	74.053232
585.000000	74.050960
583.500000	74.005733
582.000000	73.978833
580.500000	73.975835
579.000000	73.954213
577.500000	73.943139
576.000000	73.918611
574.500000	73.916312
573.000000	73.887487
571.500000	73.834009
570.000000	73.812689
568.500000	73.805887
567.000000	73.789243
565.500000	73.747994
564.000000	73.676041
562.500000	73.649733
561.000000	73.833431
559.500000	73.949660
558.000000	73.896199
556.500000	73.913646
555.000000	73.923557
553.500000	73.895215
552.000000	73.874471
550.500000	73.860265
549.000000	73.847999
547.500000	73.870474
546.000000	73.863695
544.500000	73.836855
543.000000	73.832807
541.500000	73.829968
540.000000	73.816023
538.500000	73.807901
537.000000	73.827503
535.500000	73.850832
534.000000	73.854465
532.500000	73.854100
531.000000	73.837773
529.500000	73.831518
528.000000	73.833062
526.500000	73.812465
525.000000	73.768011
523.500000	73.728549
522.000000	73.674096
520.500000	73.602982
519.000000	73.514291
517.500000	73.399371
516.000000	73.243876
514.500000	73.034797
513.000000	72.820600
511.500000	72.562715
510.000000	72.312167
508.500000	72.052607
507.000000	71.818160
505.500000	71.624734
504.000000	71.496854
502.500000	71.382514
501.000000	71.284314
499.500000	71.221701
498.000000	71.315563
496.500000	71.349048
495.000000	71.341948
493.500000	71.480053
492.000000	71.637062
490.500000	71.755158
489.000000	71.830856
487.500000	71.990023
486.000000	72.127534
484.500000	72.332924
483.000000	72.731716
481.500000	73.175967
480.000000	73.285167
478.500000	73.054579
477.000000	72.806074
475.500000	72.687248
474.000000	72.576738
472.500000	72.460142
471.000000	72.310299
469.500000	72.148826
468.000000	71.869408
466.500000	71.574786
465.000000	71.268482
463.500000	71.055194
462.000000	70.818411
460.500000	70.658208
459.000000	70.538052
457.500000	70.397898
456.000000	70.319300
454.500000	70.314947
453.000000	70.314635
451.500000	70.245494
450.000000	70.249423
448.500000	70.244011
447.000000	70.239550
445.500000	70.272145
444.000000	70.553110
442.500000	70.736618
441.000000	70.681259
439.500000	70.639301
438.000000	70.447183
436.500000	70.383490
435.000000	70.383140
433.500000	70.268630
432.000000	70.227454
430.500000	70.186409
429.000000	70.138089
427.500000	70.117430
426.000000	70.035121
424.500000	69.974499
423.000000	69.962450
421.500000	69.874304
420.000000	69.847692
418.500000	69.741648
417.000000	69.726913
415.500000	69.608490
414.000000	69.535254
412.500000	69.394426
411.000000	69.350211
409.500000	69.236441
408.000000	69.136868
406.500000	69.097664
405.000000	68.936103
403.500000	68.796193
402.000000	68.694303
400.500000	68.636733
399.000000	68.662689
397.500000	68.482195
396.000000	68.281612
394.500000	68.239212
393.000000	68.104865
391.500000	67.852440
390.000000	67.835467
388.500000	67.634745
387.000000	67.410764
385.500000	67.314309
384.000000	67.039224
382.500000	66.823689
381.000000	66.529930
379.500000	66.226237
378.000000	66.086021
376.500000	66.749300
375.000000	66.711070
373.500000	65.961716
372.000000	65.097364
370.500000	64.141857
369.000000	63.000990
367.500000	61.644735
366.000000	59.940729
364.500000	58.039567
363.000000	55.836195
361.500000	53.314197
360.000000	50.239831
358.500000	46.731523
357.000000	42.532974
355.500000	37.984826
354.000000	33.011180
352.500000	27.734992
351.000000	22.399977
349.500000	17.295694
348.000000	12.588509
346.500000	8.549641
345.000000	5.328327
343.500000	2.993793
342.000000	1.474542
340.500000	0.641612
339.000000	0.238845
337.500000	0.092446
336.000000	0.062389
334.500000	0.059119
333.000000	0.048951
331.500000	0.053337
330.000000	0.048538
328.500000	0.050293
327.000000	0.072576
325.500000	0.059685
324.000000	0.062405
322.500000	0.069935
321.000000	0.063969
319.500000	0.069486
318.000000	-0.004137
316.500000	-0.027498
315.000000	-0.028631
313.500000	-0.031293
312.000000	-0.032953
310.500000	-0.024504
309.000000	-0.018099
307.500000	-0.009446
306.000000	-0.004447
304.500000	-0.002561
303.000000	-0.005789
301.500000	-0.008744
300.000000	-0.011796
