PE UV       SUBTECH     SPECTRUM    ASCII       PEDS        4.00        
   -1
Sample94.Sample.Raw.asc
20/12/16
17:12:13.00
20/12/16
17:12:13.00
Administrator

300.000000
1
Lambda 850
850L1710193
PerkinElmer UV WinLab 6.4.0.973 / 2.02.06 Lambda 800 UV/VIS, Jan 28 2016 16:58:34

0
0
2
0
0
UV/VIS
1
1
1
RBeamAtt,SBeamAtt,60mm sphere
0
0
0
0
Fix
 
0
0.2
0
0
0
 
 
 
0
 
0
319.2
0
Front
100
 
S:100 R:100
 
0
0
0
 
0
 
 
 
0
 
 
0
0
0
0
0
 
 
 
 
0
0


0
0
#HDR
-1
-1
#GR
nm
%T
1.0
0.0
750.000000
-1.500000
301
8
74.459653
-0.038154
#DATA
750.000000	74.029699
748.500000	74.459653
747.000000	74.282718
745.500000	74.220050
744.000000	74.423700
742.500000	74.364446
741.000000	74.369006
739.500000	74.265430
738.000000	74.169392
736.500000	74.166163
735.000000	74.205063
733.500000	74.226013
732.000000	74.320858
730.500000	74.140451
729.000000	74.211061
727.500000	74.131976
726.000000	74.265392
724.500000	74.147374
723.000000	74.314513
721.500000	74.237206
720.000000	74.213886
718.500000	74.147919
717.000000	74.102771
715.500000	74.144317
714.000000	74.146965
712.500000	74.220613
711.000000	74.082473
709.500000	74.019499
708.000000	74.127952
706.500000	74.036429
705.000000	74.074219
703.500000	73.981554
702.000000	73.991070
700.500000	74.053570
699.000000	74.013575
697.500000	73.934235
696.000000	74.086944
694.500000	73.962489
693.000000	73.987727
691.500000	73.888173
690.000000	73.821357
688.500000	74.015531
687.000000	73.997627
685.500000	73.931168
684.000000	73.870143
682.500000	73.855937
681.000000	73.924236
679.500000	73.984626
678.000000	73.845660
676.500000	73.758507
675.000000	73.918499
673.500000	73.895666
672.000000	73.838443
670.500000	73.817465
669.000000	73.813929
667.500000	73.788931
666.000000	73.794218
664.500000	73.807196
663.000000	73.795954
661.500000	73.704933
660.000000	73.722136
658.500000	73.718665
657.000000	73.728367
655.500000	73.738846
654.000000	73.676705
652.500000	73.702418
651.000000	73.670344
649.500000	73.589354
648.000000	73.570773
646.500000	73.595759
645.000000	73.560990
643.500000	73.591430
642.000000	73.555668
640.500000	73.537366
639.000000	73.477370
637.500000	73.481308
636.000000	73.516613
634.500000	73.485769
633.000000	73.477556
631.500000	73.463657
630.000000	73.444649
628.500000	73.419520
627.000000	73.405186
625.500000	73.391220
624.000000	73.333202
622.500000	73.341445
621.000000	73.380326
619.500000	73.362472
618.000000	73.310646
616.500000	73.304806
615.000000	73.304081
613.500000	73.222943
612.000000	73.180973
610.500000	73.146488
609.000000	73.146265
607.500000	73.156883
606.000000	73.143667
604.500000	73.164283
603.000000	73.169479
601.500000	73.086734
600.000000	73.042424
598.500000	73.044505
597.000000	73.013667
595.500000	72.982906
594.000000	72.934397
592.500000	72.896979
591.000000	72.893444
589.500000	72.918955
588.000000	72.852841
586.500000	72.825030
585.000000	72.816568
583.500000	72.752964
582.000000	72.733872
580.500000	72.714950
579.000000	72.717400
577.500000	72.684594
576.000000	72.629523
574.500000	72.632381
573.000000	72.630047
571.500000	72.579694
570.000000	72.533743
568.500000	72.495591
567.000000	72.441044
565.500000	72.426260
564.000000	72.356412
562.500000	72.298643
561.000000	72.452501
559.500000	72.586911
558.000000	72.543014
556.500000	72.507192
555.000000	72.504044
553.500000	72.485324
552.000000	72.465140
550.500000	72.433873
549.000000	72.396307
547.500000	72.375585
546.000000	72.350824
544.500000	72.347487
543.000000	72.325884
541.500000	72.290230
540.000000	72.265363
538.500000	72.244761
537.000000	72.236937
535.500000	72.232360
534.000000	72.246247
532.500000	72.233999
531.000000	72.186630
529.500000	72.156621
528.000000	72.138896
526.500000	72.100202
525.000000	72.042870
523.500000	71.989603
522.000000	71.928770
520.500000	71.837762
519.000000	71.734224
517.500000	71.619752
516.000000	71.454342
514.500000	71.252270
513.000000	71.033889
511.500000	70.792042
510.000000	70.567327
508.500000	70.343167
507.000000	70.118466
505.500000	69.956994
504.000000	69.838966
502.500000	69.772476
501.000000	69.742519
499.500000	69.722391
498.000000	69.838142
496.500000	69.924008
495.000000	70.029826
493.500000	70.202348
492.000000	70.325793
490.500000	70.477978
489.000000	70.632250
487.500000	70.769346
486.000000	70.881946
484.500000	71.027760
483.000000	71.320445
481.500000	71.623583
480.000000	71.676588
478.500000	71.399781
477.000000	71.118767
475.500000	70.961307
474.000000	70.819797
472.500000	70.641332
471.000000	70.452947
469.500000	70.260046
468.000000	70.009902
466.500000	69.698717
465.000000	69.434966
463.500000	69.190771
462.000000	69.008714
460.500000	68.886454
459.000000	68.758381
457.500000	68.689462
456.000000	68.637482
454.500000	68.637618
453.000000	68.664235
451.500000	68.694111
450.000000	68.711060
448.500000	68.694553
447.000000	68.664920
445.500000	68.763015
444.000000	69.103675
442.500000	69.200840
441.000000	69.130512
439.500000	69.038401
438.000000	68.932831
436.500000	68.883575
435.000000	68.816044
433.500000	68.682094
432.000000	68.619280
430.500000	68.547022
429.000000	68.504315
427.500000	68.429006
426.000000	68.336734
424.500000	68.321708
423.000000	68.248303
421.500000	68.133822
420.000000	68.053904
418.500000	67.989612
417.000000	67.981545
415.500000	67.849709
414.000000	67.712462
412.500000	67.620667
411.000000	67.599550
409.500000	67.454550
408.000000	67.302239
406.500000	67.280355
405.000000	67.120019
403.500000	66.958256
402.000000	66.782417
400.500000	66.693905
399.000000	66.582794
397.500000	66.388982
396.000000	66.291530
394.500000	66.174281
393.000000	65.937609
391.500000	65.775933
390.000000	65.645023
388.500000	65.453741
387.000000	65.129936
385.500000	64.990021
384.000000	64.709465
382.500000	64.387464
381.000000	63.988211
379.500000	63.559585
378.000000	63.276081
376.500000	63.652352
375.000000	63.442389
373.500000	62.482030
372.000000	61.317409
370.500000	60.050391
369.000000	58.520167
367.500000	56.671946
366.000000	54.668767
364.500000	52.233904
363.000000	49.256457
361.500000	45.958035
360.000000	42.127544
358.500000	37.822822
357.000000	32.933206
355.500000	27.824247
354.000000	22.539125
352.500000	17.451160
351.000000	12.776848
349.500000	8.834955
348.000000	5.725904
346.500000	3.486127
345.000000	1.987430
343.500000	1.053892
342.000000	0.522072
340.500000	0.237298
339.000000	0.099033
337.500000	0.055652
336.000000	0.041562
334.500000	0.035527
333.000000	0.038660
331.500000	0.043394
330.000000	0.050858
328.500000	0.056056
327.000000	0.064595
325.500000	0.068889
324.000000	0.051693
322.500000	0.077095
321.000000	0.060617
319.500000	0.059998
318.000000	-0.002538
316.500000	-0.033410
315.000000	-0.036986
313.500000	-0.038154
312.000000	-0.027209
310.500000	-0.029593
309.000000	-0.021775
307.500000	-0.022197
306.000000	-0.014286
304.500000	-0.007776
303.000000	-0.012813
301.500000	-0.013495
300.000000	-0.017598
