PE UV       SUBTECH     SPECTRUM    ASCII       PEDS        4.00        
   -1
Sample17.Sample.Raw.asc
21/03/30
11:59:21.00
21/03/30
11:59:21.00
Administrator

300.000000
1
Lambda 850
850L1710193
PerkinElmer UV WinLab 6.4.0.973 / 2.02.06 Lambda 800 UV/VIS, Jan 28 2016 16:58:34

0
0
2
0
0
UV/VIS
1
1
1
RBeamAtt,SBeamAtt,60mm sphere
0
0
0
0
Fix
 
0
0.2
0
0
0
 
 
 
0
 
0
340
0
Front
100
 
S:100 R:100
 
0
0
0
 
0
 
 
 
0
 
 
0
0
0
0
0
 
 
 
 
0
0


0
0
#HDR
-1
-1
#GR
nm
%T
1.0
0.0
750.000000
-1.500000
301
8
74.272777
-0.030667
#DATA
750.000000	73.825315
748.500000	74.078723
747.000000	74.272777
745.500000	74.102473
744.000000	74.059557
742.500000	74.143373
741.000000	74.061363
739.500000	73.970177
738.000000	74.052990
736.500000	73.865769
735.000000	73.878176
733.500000	73.834712
732.000000	74.007675
730.500000	74.009641
729.000000	73.886012
727.500000	73.844429
726.000000	73.892373
724.500000	73.750830
723.000000	73.797073
721.500000	73.854306
720.000000	73.710983
718.500000	73.695532
717.000000	73.728874
715.500000	73.660221
714.000000	73.726231
712.500000	73.703852
711.000000	73.651133
709.500000	73.570895
708.000000	73.568609
706.500000	73.508462
705.000000	73.521245
703.500000	73.401829
702.000000	73.586067
700.500000	73.434009
699.000000	73.439109
697.500000	73.415857
696.000000	73.571344
694.500000	73.393751
693.000000	73.343594
691.500000	73.291860
690.000000	73.254698
688.500000	73.312391
687.000000	73.289416
685.500000	73.299981
684.000000	73.287176
682.500000	73.243450
681.000000	73.242730
679.500000	73.181750
678.000000	73.206817
676.500000	73.131214
675.000000	73.063807
673.500000	72.983680
672.000000	73.020874
670.500000	72.998116
669.000000	73.001198
667.500000	72.865415
666.000000	72.924459
664.500000	72.813943
663.000000	72.790912
661.500000	72.729020
660.000000	72.740913
658.500000	72.720203
657.000000	72.619742
655.500000	72.585332
654.000000	72.525247
652.500000	72.483554
651.000000	72.406113
649.500000	72.331819
648.000000	72.308684
646.500000	72.278082
645.000000	72.202138
643.500000	72.120698
642.000000	72.064410
640.500000	72.046175
639.000000	71.954118
637.500000	71.909861
636.000000	71.800882
634.500000	71.751856
633.000000	71.716191
631.500000	71.618760
630.000000	71.570654
628.500000	71.446898
627.000000	71.402255
625.500000	71.377554
624.000000	71.256457
622.500000	71.219793
621.000000	71.154504
619.500000	71.056003
618.000000	70.963445
616.500000	70.914168
615.000000	70.825087
613.500000	70.723653
612.000000	70.649783
610.500000	70.575402
609.000000	70.519611
607.500000	70.437271
606.000000	70.332510
604.500000	70.264752
603.000000	70.150510
601.500000	70.057476
600.000000	70.019056
598.500000	69.923328
597.000000	69.845323
595.500000	69.771782
594.000000	69.681224
592.500000	69.595642
591.000000	69.559837
589.500000	69.513950
588.000000	69.432064
586.500000	69.349123
585.000000	69.279935
583.500000	69.196601
582.000000	69.100403
580.500000	69.030335
579.000000	68.976888
577.500000	68.887028
576.000000	68.822483
574.500000	68.743152
573.000000	68.600063
571.500000	68.531267
570.000000	68.481525
568.500000	68.388110
567.000000	68.294691
565.500000	68.200032
564.000000	68.088288
562.500000	68.017019
561.000000	68.129714
559.500000	68.216823
558.000000	68.201712
556.500000	68.129514
555.000000	68.043964
553.500000	67.980116
552.000000	67.887377
550.500000	67.845100
549.000000	67.825589
547.500000	67.776940
546.000000	67.698219
544.500000	67.663492
543.000000	67.654560
541.500000	67.629922
540.000000	67.578179
538.500000	67.543257
537.000000	67.526326
535.500000	67.514313
534.000000	67.508720
532.500000	67.478634
531.000000	67.417172
529.500000	67.361116
528.000000	67.342419
526.500000	67.328848
525.000000	67.282908
523.500000	67.207169
522.000000	67.134387
520.500000	67.060535
519.000000	66.940732
517.500000	66.807739
516.000000	66.641898
514.500000	66.445280
513.000000	66.218195
511.500000	65.959888
510.000000	65.664884
508.500000	65.411485
507.000000	65.157378
505.500000	64.876662
504.000000	64.656198
502.500000	64.466251
501.000000	64.361069
499.500000	64.251826
498.000000	64.191515
496.500000	64.117333
495.000000	64.088115
493.500000	64.123445
492.000000	64.138428
490.500000	64.206620
489.000000	64.273706
487.500000	64.373271
486.000000	64.542702
484.500000	64.713365
483.000000	65.070249
481.500000	65.466947
480.000000	65.652932
478.500000	65.483136
477.000000	65.285800
475.500000	65.145637
474.000000	65.125957
472.500000	64.980657
471.000000	64.846543
469.500000	64.674478
468.000000	64.456793
466.500000	64.210576
465.000000	63.903649
463.500000	63.652694
462.000000	63.392255
460.500000	63.194457
459.000000	63.038306
457.500000	62.936789
456.000000	62.848540
454.500000	62.729129
453.000000	62.680723
451.500000	62.598265
450.000000	62.489857
448.500000	62.427129
447.000000	62.351495
445.500000	62.242879
444.000000	62.538589
442.500000	62.655552
441.000000	62.542858
439.500000	62.370394
438.000000	62.342980
436.500000	62.212307
435.000000	62.123772
433.500000	62.005836
432.000000	61.953060
430.500000	61.845638
429.000000	61.741303
427.500000	61.691495
426.000000	61.639650
424.500000	61.562720
423.000000	61.393269
421.500000	61.380150
420.000000	61.300451
418.500000	61.233219
417.000000	61.131021
415.500000	60.993308
414.000000	60.913407
412.500000	60.845223
411.000000	60.826871
409.500000	60.678462
408.000000	60.629132
406.500000	60.468658
405.000000	60.370218
403.500000	60.320467
402.000000	60.221984
400.500000	60.135880
399.000000	60.032473
397.500000	59.938081
396.000000	59.840105
394.500000	59.804003
393.000000	59.671562
391.500000	59.538099
390.000000	59.446210
388.500000	59.359236
387.000000	59.188190
385.500000	59.101972
384.000000	58.941713
382.500000	58.739552
381.000000	58.638011
379.500000	58.326733
378.000000	58.410004
376.500000	58.654185
375.000000	58.913833
373.500000	58.246719
372.000000	57.512705
370.500000	56.696868
369.000000	55.710100
367.500000	54.708408
366.000000	53.384576
364.500000	51.755549
363.000000	49.894646
361.500000	47.674231
360.000000	44.988762
358.500000	41.776068
357.000000	38.129182
355.500000	34.113882
354.000000	29.491114
352.500000	24.762996
351.000000	19.922161
349.500000	15.223894
348.000000	10.983854
346.500000	7.362283
345.000000	4.488058
343.500000	2.471000
342.000000	1.177511
340.500000	0.491308
339.000000	0.153020
337.500000	0.010759
336.000000	-0.018481
334.500000	-0.020351
333.000000	-0.015638
331.500000	-0.020691
330.000000	-0.020237
328.500000	-0.021896
327.000000	-0.019118
325.500000	-0.022702
324.000000	-0.021962
322.500000	-0.021850
321.000000	-0.023852
319.500000	-0.019291
318.000000	0.003296
316.500000	-0.022852
315.000000	-0.030667
313.500000	-0.027321
312.000000	-0.025710
310.500000	-0.018672
309.000000	-0.015859
307.500000	-0.012580
306.000000	-0.008430
304.500000	-0.004847
303.000000	-0.007795
301.500000	-0.010274
300.000000	-0.009995
