PE UV       SUBTECH     SPECTRUM    ASCII       PEDS        4.00        
   -1
Sample174.Sample.Raw.asc
21/01/27
14:48:13.00
21/01/27
14:48:13.00
Administrator

300.000000
1
Lambda 850
850L1710193
PerkinElmer UV WinLab 6.4.0.973 / 2.02.06 Lambda 800 UV/VIS, Jan 28 2016 16:58:34

0
0
2
0
0
UV/VIS
1
1
1
RBeamAtt,SBeamAtt,60mm sphere
0
0
0
0
Fix
 
0
0.2
0
0
0
 
 
 
0
 
0
319.2
0
Front
100
 
S:100 R:100
 
0
0
0
 
0
 
 
 
0
 
 
0
0
0
0
0
 
 
 
 
0
0


0
0
#HDR
-1
-1
#GR
nm
%T
1.0
0.0
750.000000
-1.500000
301
8
73.379890
-0.028019
#DATA
750.000000	73.233860
748.500000	73.379890
747.000000	73.256318
745.500000	73.288603
744.000000	73.239188
742.500000	73.112698
741.000000	73.263416
739.500000	73.199386
738.000000	73.265952
736.500000	73.145996
735.000000	73.265012
733.500000	73.231753
732.000000	73.121202
730.500000	73.114172
729.000000	73.048514
727.500000	73.178529
726.000000	73.087989
724.500000	73.203517
723.000000	73.163035
721.500000	73.146026
720.000000	72.923097
718.500000	72.952597
717.000000	73.069457
715.500000	73.042332
714.000000	72.942691
712.500000	73.015640
711.000000	72.870180
709.500000	72.799762
708.000000	72.851899
706.500000	72.830961
705.000000	72.895730
703.500000	72.740650
702.000000	72.795134
700.500000	72.739786
699.000000	72.716747
697.500000	72.702211
696.000000	72.652164
694.500000	72.614944
693.000000	72.590747
691.500000	72.500012
690.000000	72.438631
688.500000	72.572753
687.000000	72.426230
685.500000	72.501201
684.000000	72.405497
682.500000	72.441239
681.000000	72.337684
679.500000	72.286023
678.000000	72.276454
676.500000	72.299440
675.000000	72.251748
673.500000	72.248825
672.000000	72.206270
670.500000	72.113180
669.000000	72.095491
667.500000	72.054627
666.000000	72.055903
664.500000	71.940240
663.000000	71.921139
661.500000	71.838836
660.000000	71.874704
658.500000	71.781092
657.000000	71.685406
655.500000	71.614193
654.000000	71.574424
652.500000	71.522310
651.000000	71.509784
649.500000	71.445878
648.000000	71.424911
646.500000	71.328569
645.000000	71.260326
643.500000	71.216784
642.000000	71.101444
640.500000	71.009439
639.000000	70.981025
637.500000	70.914051
636.000000	70.830419
634.500000	70.807442
633.000000	70.718632
631.500000	70.625772
630.000000	70.589755
628.500000	70.516819
627.000000	70.421426
625.500000	70.394532
624.000000	70.309560
622.500000	70.236043
621.000000	70.144070
619.500000	70.055653
618.000000	69.964662
616.500000	69.884870
615.000000	69.783186
613.500000	69.747264
612.000000	69.681772
610.500000	69.565516
609.000000	69.458064
607.500000	69.360462
606.000000	69.291907
604.500000	69.210358
603.000000	69.121216
601.500000	69.046076
600.000000	68.967836
598.500000	68.876930
597.000000	68.785699
595.500000	68.652268
594.000000	68.592565
592.500000	68.549883
591.000000	68.409067
589.500000	68.307519
588.000000	68.244940
586.500000	68.126044
585.000000	68.048300
583.500000	67.956051
582.000000	67.827489
580.500000	67.746688
579.000000	67.688601
577.500000	67.592952
576.000000	67.485968
574.500000	67.340959
573.000000	67.261076
571.500000	67.199690
570.000000	67.058651
568.500000	66.909792
567.000000	66.797773
565.500000	66.713555
564.000000	66.620702
562.500000	66.501257
561.000000	66.498953
559.500000	66.524385
558.000000	66.452118
556.500000	66.371894
555.000000	66.277394
553.500000	66.161657
552.000000	66.073238
550.500000	65.994123
549.000000	65.907396
547.500000	65.816676
546.000000	65.728588
544.500000	65.638097
543.000000	65.525476
541.500000	65.444860
540.000000	65.342332
538.500000	65.227535
537.000000	65.173248
535.500000	65.109484
534.000000	65.008581
532.500000	64.912392
531.000000	64.861241
529.500000	64.801002
528.000000	64.686444
526.500000	64.602990
525.000000	64.503195
523.500000	64.386632
522.000000	64.261185
520.500000	64.131930
519.000000	63.996591
517.500000	63.836479
516.000000	63.642683
514.500000	63.428862
513.000000	63.203698
511.500000	62.941695
510.000000	62.724357
508.500000	62.506785
507.000000	62.265362
505.500000	62.086753
504.000000	61.968107
502.500000	61.907287
501.000000	61.900340
499.500000	61.963967
498.000000	62.009033
496.500000	62.124332
495.000000	62.222047
493.500000	62.324484
492.000000	62.497153
490.500000	62.594748
489.000000	62.679197
487.500000	62.741543
486.000000	62.798051
484.500000	62.932914
483.000000	63.112956
481.500000	63.268944
480.000000	63.228477
478.500000	62.900926
477.000000	62.610098
475.500000	62.429858
474.000000	62.268241
472.500000	62.083849
471.000000	61.888850
469.500000	61.678784
468.000000	61.429698
466.500000	61.202508
465.000000	60.936608
463.500000	60.676904
462.000000	60.502380
460.500000	60.367669
459.000000	60.271616
457.500000	60.207837
456.000000	60.186515
454.500000	60.201102
453.000000	60.181978
451.500000	60.202026
450.000000	60.223211
448.500000	60.212303
447.000000	60.221173
445.500000	60.185236
444.000000	60.395138
442.500000	60.511016
441.000000	60.362030
439.500000	60.201964
438.000000	60.129841
436.500000	60.085441
435.000000	59.957922
433.500000	59.878045
432.000000	59.727517
430.500000	59.696390
429.000000	59.625871
427.500000	59.529311
426.000000	59.425101
424.500000	59.320864
423.000000	59.261857
421.500000	59.116568
420.000000	59.034546
418.500000	58.955186
417.000000	58.964847
415.500000	58.774484
414.000000	58.681470
412.500000	58.584564
411.000000	58.464699
409.500000	58.316898
408.000000	58.237595
406.500000	58.142212
405.000000	58.055752
403.500000	57.902801
402.000000	57.846951
400.500000	57.658558
399.000000	57.586675
397.500000	57.517917
396.000000	57.324701
394.500000	57.270311
393.000000	57.113988
391.500000	56.998934
390.000000	56.801232
388.500000	56.585182
387.000000	56.430730
385.500000	56.301234
384.000000	56.101493
382.500000	55.748247
381.000000	55.630549
379.500000	55.225787
378.000000	54.992488
376.500000	55.461352
375.000000	55.321893
373.500000	54.551349
372.000000	53.485581
370.500000	52.515176
369.000000	51.311531
367.500000	50.007035
366.000000	48.234899
364.500000	46.304652
363.000000	44.035086
361.500000	41.353414
360.000000	38.055179
358.500000	34.470309
357.000000	30.291108
355.500000	25.983103
354.000000	21.357112
352.500000	16.812895
351.000000	12.534453
349.500000	8.877389
348.000000	5.876267
346.500000	3.664729
345.000000	2.143103
343.500000	1.170641
342.000000	0.602813
340.500000	0.275604
339.000000	0.121496
337.500000	0.057468
336.000000	0.040507
334.500000	0.038910
333.000000	0.039034
331.500000	0.041087
330.000000	0.040811
328.500000	0.047823
327.000000	0.044175
325.500000	0.046089
324.000000	0.047884
322.500000	0.043132
321.000000	0.047643
319.500000	0.044284
318.000000	0.005371
316.500000	-0.026511
315.000000	-0.028019
313.500000	-0.027592
312.000000	-0.024692
310.500000	-0.022273
309.000000	-0.021729
307.500000	-0.013177
306.000000	-0.010066
304.500000	-0.006948
303.000000	-0.005236
301.500000	-0.009056
300.000000	-0.012292
