PE UV       SUBTECH     SPECTRUM    ASCII       PEDS        4.00        
   -1
Sample10.Sample.Raw.asc
21/03/26
11:56:10.00
21/03/26
11:56:10.00
Administrator

300.000000
1
Lambda 850
850L1710193
PerkinElmer UV WinLab 6.4.0.973 / 2.02.06 Lambda 800 UV/VIS, Jan 28 2016 16:58:34

0
0
2
0
0
UV/VIS
1
1
1
RBeamAtt,SBeamAtt,60mm sphere
0
0
0
0
Fix
 
0
0.2
0
0
0
 
 
 
0
 
0
340
0
Front
100
 
S:100 R:100
 
0
0
0
 
0
 
 
 
0
 
 
0
0
0
0
0
 
 
 
 
0
0


0
0
#HDR
-1
-1
#GR
nm
%T
1.0
0.0
750.000000
-1.500000
301
8
75.138666
-0.046265
#DATA
750.000000	74.761592
748.500000	75.091261
747.000000	74.885669
745.500000	74.922283
744.000000	74.861773
742.500000	75.099082
741.000000	75.138666
739.500000	74.906860
738.000000	75.027481
736.500000	74.969019
735.000000	74.938627
733.500000	74.936636
732.000000	74.852907
730.500000	74.810590
729.000000	74.818295
727.500000	74.875662
726.000000	74.877086
724.500000	74.827609
723.000000	74.837032
721.500000	74.818329
720.000000	74.769675
718.500000	74.899576
717.000000	74.807121
715.500000	74.723709
714.000000	74.796452
712.500000	74.777193
711.000000	74.801905
709.500000	74.673675
708.000000	74.708914
706.500000	74.812086
705.000000	74.644793
703.500000	74.623345
702.000000	74.609282
700.500000	74.691187
699.000000	74.643644
697.500000	74.681473
696.000000	74.633614
694.500000	74.683856
693.000000	74.638808
691.500000	74.523061
690.000000	74.371535
688.500000	74.515042
687.000000	74.467805
685.500000	74.536654
684.000000	74.560301
682.500000	74.525200
681.000000	74.559731
679.500000	74.535113
678.000000	74.388456
676.500000	74.433557
675.000000	74.389282
673.500000	74.413169
672.000000	74.356667
670.500000	74.442762
669.000000	74.393322
667.500000	74.355801
666.000000	74.431863
664.500000	74.434058
663.000000	74.356698
661.500000	74.317026
660.000000	74.372207
658.500000	74.301687
657.000000	74.354674
655.500000	74.270057
654.000000	74.282151
652.500000	74.268227
651.000000	74.239770
649.500000	74.189056
648.000000	74.242604
646.500000	74.177384
645.000000	74.209597
643.500000	74.227728
642.000000	74.132062
640.500000	74.066078
639.000000	74.066031
637.500000	74.152402
636.000000	74.151232
634.500000	74.145521
633.000000	74.068911
631.500000	74.022893
630.000000	74.063446
628.500000	74.024993
627.000000	73.959058
625.500000	73.939553
624.000000	73.995606
622.500000	73.940923
621.000000	73.908311
619.500000	73.931975
618.000000	73.887378
616.500000	73.844357
615.000000	73.842431
613.500000	73.787739
612.000000	73.808740
610.500000	73.749762
609.000000	73.757383
607.500000	73.720291
606.000000	73.693105
604.500000	73.731089
603.000000	73.738752
601.500000	73.670369
600.000000	73.650748
598.500000	73.641860
597.000000	73.609637
595.500000	73.608686
594.000000	73.572263
592.500000	73.569232
591.000000	73.581017
589.500000	73.585197
588.000000	73.556972
586.500000	73.544404
585.000000	73.492866
583.500000	73.463850
582.000000	73.457091
580.500000	73.416634
579.000000	73.401312
577.500000	73.395856
576.000000	73.405575
574.500000	73.350805
573.000000	73.325526
571.500000	73.321781
570.000000	73.255651
568.500000	73.231638
567.000000	73.240767
565.500000	73.216353
564.000000	73.130434
562.500000	73.154747
561.000000	73.330229
559.500000	73.416880
558.000000	73.407814
556.500000	73.388332
555.000000	73.370788
553.500000	73.345850
552.000000	73.357912
550.500000	73.348120
549.000000	73.312107
547.500000	73.327565
546.000000	73.317177
544.500000	73.319413
543.000000	73.334121
541.500000	73.320750
540.000000	73.315181
538.500000	73.318331
537.000000	73.304121
535.500000	73.305900
534.000000	73.348517
532.500000	73.368305
531.000000	73.364384
529.500000	73.398760
528.000000	73.373227
526.500000	73.322130
525.000000	73.317619
523.500000	73.290762
522.000000	73.260415
520.500000	73.179085
519.000000	73.088359
517.500000	72.965564
516.000000	72.793453
514.500000	72.624979
513.000000	72.407903
511.500000	72.152731
510.000000	71.897565
508.500000	71.658649
507.000000	71.417657
505.500000	71.235406
504.000000	71.094457
502.500000	70.958255
501.000000	70.928930
499.500000	70.917652
498.000000	70.947342
496.500000	70.986431
495.000000	71.024209
493.500000	71.103777
492.000000	71.205637
490.500000	71.329022
489.000000	71.438711
487.500000	71.589929
486.000000	71.782337
484.500000	71.980975
483.000000	72.319842
481.500000	72.754858
480.000000	72.878343
478.500000	72.668705
477.000000	72.453119
475.500000	72.331342
474.000000	72.229596
472.500000	72.140401
471.000000	71.988276
469.500000	71.774558
468.000000	71.552105
466.500000	71.311430
465.000000	71.050742
463.500000	70.812726
462.000000	70.603402
460.500000	70.429970
459.000000	70.309339
457.500000	70.234839
456.000000	70.161080
454.500000	70.077884
453.000000	70.114081
451.500000	70.070029
450.000000	70.075704
448.500000	70.060330
447.000000	70.026182
445.500000	70.036956
444.000000	70.248325
442.500000	70.421031
441.000000	70.286745
439.500000	70.214769
438.000000	70.139736
436.500000	70.015717
435.000000	69.983955
433.500000	69.946851
432.000000	69.857650
430.500000	69.732107
429.000000	69.625298
427.500000	69.525959
426.000000	69.521905
424.500000	69.428779
423.000000	69.415217
421.500000	69.327397
420.000000	69.254314
418.500000	69.136607
417.000000	69.012667
415.500000	68.967410
414.000000	68.878359
412.500000	68.756131
411.000000	68.638844
409.500000	68.644562
408.000000	68.505602
406.500000	68.379642
405.000000	68.256140
403.500000	68.074435
402.000000	68.000553
400.500000	67.918967
399.000000	67.875487
397.500000	67.765927
396.000000	67.601445
394.500000	67.448427
393.000000	67.391509
391.500000	67.213855
390.000000	67.084063
388.500000	66.916905
387.000000	66.779212
385.500000	66.646285
384.000000	66.422501
382.500000	66.179494
381.000000	65.941923
379.500000	65.619801
378.000000	65.571460
376.500000	66.046673
375.000000	66.304850
373.500000	65.441603
372.000000	64.389559
370.500000	63.645525
369.000000	62.794335
367.500000	61.414788
366.000000	60.035159
364.500000	58.460316
363.000000	56.459662
361.500000	54.115369
360.000000	51.662887
358.500000	48.421229
357.000000	44.789801
355.500000	40.456773
354.000000	35.998441
352.500000	30.945200
351.000000	25.738705
349.500000	20.565477
348.000000	15.595851
346.500000	11.095260
345.000000	7.384277
343.500000	4.443456
342.000000	2.408082
340.500000	1.119444
339.000000	0.368264
337.500000	0.060260
336.000000	-0.019959
334.500000	-0.038819
333.000000	-0.046265
331.500000	-0.043930
330.000000	-0.033249
328.500000	-0.026288
327.000000	-0.025715
325.500000	-0.027340
324.000000	-0.014284
322.500000	-0.023920
321.000000	-0.020833
319.500000	-0.007860
318.000000	-0.006021
316.500000	-0.040409
315.000000	-0.039088
313.500000	-0.042345
312.000000	-0.040385
310.500000	-0.033917
309.000000	-0.027907
307.500000	-0.018162
306.000000	-0.015258
304.500000	-0.011301
303.000000	-0.015668
301.500000	-0.010455
300.000000	-0.010279
