PE UV       SUBTECH     SPECTRUM    ASCII       PEDS        4.00        
   -1
Sample67.Sample.Raw.asc
20/12/15
16:59:08.00
20/12/15
16:59:08.00
Administrator

300.000000
1
Lambda 850
850L1710193
PerkinElmer UV WinLab 6.4.0.973 / 2.02.06 Lambda 800 UV/VIS, Jan 28 2016 16:58:34

0
0
2
0
0
UV/VIS
1
1
1
RBeamAtt,SBeamAtt,60mm sphere
0
0
0
0
Fix
 
0
0.2
0
0
0
 
 
 
0
 
0
319.2
0
Front
100
 
S:100 R:100
 
0
0
0
 
0
 
 
 
0
 
 
0
0
0
0
0
 
 
 
 
0
0


0
0
#HDR
-1
-1
#GR
nm
%T
1.0
0.0
750.000000
-1.500000
301
8
75.387780
-0.026516
#DATA
750.000000	74.805706
748.500000	75.216487
747.000000	75.280941
745.500000	75.387780
744.000000	75.376661
742.500000	75.231699
741.000000	75.260969
739.500000	75.117424
738.000000	75.122699
736.500000	75.211963
735.000000	75.261757
733.500000	75.122137
732.000000	75.170706
730.500000	75.192717
729.000000	75.104394
727.500000	75.080620
726.000000	74.974297
724.500000	75.158488
723.000000	74.993875
721.500000	74.965966
720.000000	75.000832
718.500000	75.076564
717.000000	74.942818
715.500000	74.938514
714.000000	74.990339
712.500000	74.884852
711.000000	75.011451
709.500000	74.944560
708.000000	74.984099
706.500000	74.835500
705.000000	74.935373
703.500000	74.853482
702.000000	74.831985
700.500000	74.770134
699.000000	74.953730
697.500000	74.805803
696.000000	74.752117
694.500000	74.774321
693.000000	74.713557
691.500000	74.695133
690.000000	74.588515
688.500000	74.803087
687.000000	74.703574
685.500000	74.807900
684.000000	74.754812
682.500000	74.703104
681.000000	74.745430
679.500000	74.728352
678.000000	74.622877
676.500000	74.634357
675.000000	74.611057
673.500000	74.556163
672.000000	74.612430
670.500000	74.664180
669.000000	74.625540
667.500000	74.637363
666.000000	74.565084
664.500000	74.549840
663.000000	74.576312
661.500000	74.580888
660.000000	74.533282
658.500000	74.486864
657.000000	74.488868
655.500000	74.474535
654.000000	74.494625
652.500000	74.436082
651.000000	74.403661
649.500000	74.422473
648.000000	74.445455
646.500000	74.445577
645.000000	74.337129
643.500000	74.366783
642.000000	74.395268
640.500000	74.312890
639.000000	74.307384
637.500000	74.286897
636.000000	74.295268
634.500000	74.288219
633.000000	74.237905
631.500000	74.234852
630.000000	74.204367
628.500000	74.231686
627.000000	74.178558
625.500000	74.179462
624.000000	74.213276
622.500000	74.137279
621.000000	74.148970
619.500000	74.144832
618.000000	74.094257
616.500000	74.087124
615.000000	74.081815
613.500000	74.063974
612.000000	74.015667
610.500000	74.009514
609.000000	74.036673
607.500000	74.012710
606.000000	73.958367
604.500000	73.920103
603.000000	73.931156
601.500000	73.913460
600.000000	73.859003
598.500000	73.843695
597.000000	73.892316
595.500000	73.868931
594.000000	73.811170
592.500000	73.806282
591.000000	73.750728
589.500000	73.752937
588.000000	73.766181
586.500000	73.722243
585.000000	73.722289
583.500000	73.695873
582.000000	73.692362
580.500000	73.677536
579.000000	73.656958
577.500000	73.647891
576.000000	73.623838
574.500000	73.609307
573.000000	73.609390
571.500000	73.589170
570.000000	73.516090
568.500000	73.489160
567.000000	73.470319
565.500000	73.421531
564.000000	73.358367
562.500000	73.370522
561.000000	73.511264
559.500000	73.631919
558.000000	73.638811
556.500000	73.599391
555.000000	73.578348
553.500000	73.608839
552.000000	73.619810
550.500000	73.590836
549.000000	73.555463
547.500000	73.546750
546.000000	73.581432
544.500000	73.613095
543.000000	73.570942
541.500000	73.543524
540.000000	73.549835
538.500000	73.564499
537.000000	73.558767
535.500000	73.555394
534.000000	73.545247
532.500000	73.573674
531.000000	73.575127
529.500000	73.557803
528.000000	73.565796
526.500000	73.575369
525.000000	73.558995
523.500000	73.514206
522.000000	73.484113
520.500000	73.423688
519.000000	73.302606
517.500000	73.166247
516.000000	73.022867
514.500000	72.853792
513.000000	72.628449
511.500000	72.382974
510.000000	72.113806
508.500000	71.855753
507.000000	71.608630
505.500000	71.407357
504.000000	71.230158
502.500000	71.125097
501.000000	71.060662
499.500000	71.100059
498.000000	71.168911
496.500000	71.206665
495.000000	71.240725
493.500000	71.299351
492.000000	71.451353
490.500000	71.531943
489.000000	71.632007
487.500000	71.804200
486.000000	71.978655
484.500000	72.202585
483.000000	72.551949
481.500000	72.964746
480.000000	73.134137
478.500000	72.943446
477.000000	72.719417
475.500000	72.566387
474.000000	72.484342
472.500000	72.367442
471.000000	72.212585
469.500000	72.029952
468.000000	71.769626
466.500000	71.558322
465.000000	71.296012
463.500000	71.012112
462.000000	70.774376
460.500000	70.645709
459.000000	70.532212
457.500000	70.451992
456.000000	70.356684
454.500000	70.356802
453.000000	70.281263
451.500000	70.298030
450.000000	70.251799
448.500000	70.265640
447.000000	70.201225
445.500000	70.208302
444.000000	70.452823
442.500000	70.601289
441.000000	70.584353
439.500000	70.459278
438.000000	70.404424
436.500000	70.366470
435.000000	70.285086
433.500000	70.231271
432.000000	70.197427
430.500000	70.122755
429.000000	70.049680
427.500000	69.989488
426.000000	69.931981
424.500000	69.892691
423.000000	69.759021
421.500000	69.675496
420.000000	69.605426
418.500000	69.516708
417.000000	69.447866
415.500000	69.336860
414.000000	69.289675
412.500000	69.123809
411.000000	69.122502
409.500000	68.983352
408.000000	68.914132
406.500000	68.837518
405.000000	68.671396
403.500000	68.531448
402.000000	68.457558
400.500000	68.320765
399.000000	68.182116
397.500000	68.153371
396.000000	67.979396
394.500000	67.805318
393.000000	67.729942
391.500000	67.552417
390.000000	67.440689
388.500000	67.249092
387.000000	67.105121
385.500000	66.916038
384.000000	66.704830
382.500000	66.393857
381.000000	66.036879
379.500000	65.881179
378.000000	65.770061
376.500000	66.388868
375.000000	66.435622
373.500000	65.444510
372.000000	64.586165
370.500000	63.532111
369.000000	62.486683
367.500000	61.240854
366.000000	59.947684
364.500000	58.153544
363.000000	56.299962
361.500000	53.793533
360.000000	51.049873
358.500000	47.921372
357.000000	44.107618
355.500000	39.999174
354.000000	35.257754
352.500000	30.136598
351.000000	25.053659
349.500000	19.873790
348.000000	15.045702
346.500000	10.649656
345.000000	6.974375
343.500000	4.180255
342.000000	2.230958
340.500000	1.039944
339.000000	0.416040
337.500000	0.149161
336.000000	0.068068
334.500000	0.042413
333.000000	0.041940
331.500000	0.037500
330.000000	0.041616
328.500000	0.034920
327.000000	0.040115
325.500000	0.029761
324.000000	0.037947
322.500000	0.033117
321.000000	0.033920
319.500000	0.036673
318.000000	0.015803
316.500000	-0.009954
315.000000	-0.021885
313.500000	-0.026516
312.000000	-0.026256
310.500000	-0.017138
309.000000	-0.020656
307.500000	-0.016923
306.000000	-0.010140
304.500000	-0.003700
303.000000	-0.008845
301.500000	-0.018072
300.000000	-0.013790
