PE UV       SUBTECH     SPECTRUM    ASCII       PEDS        4.00        
   -1
Sample62.Sample.Raw.asc
20/12/15
16:42:32.00
20/12/15
16:42:32.00
Administrator

300.000000
1
Lambda 850
850L1710193
PerkinElmer UV WinLab 6.4.0.973 / 2.02.06 Lambda 800 UV/VIS, Jan 28 2016 16:58:34

0
0
2
0
0
UV/VIS
1
1
1
RBeamAtt,SBeamAtt,60mm sphere
0
0
0
0
Fix
 
0
0.2
0
0
0
 
 
 
0
 
0
319.2
0
Front
100
 
S:100 R:100
 
0
0
0
 
0
 
 
 
0
 
 
0
0
0
0
0
 
 
 
 
0
0


0
0
#HDR
-1
-1
#GR
nm
%T
1.0
0.0
750.000000
-1.500000
301
8
73.913033
-0.036702
#DATA
750.000000	73.356671
748.500000	73.705510
747.000000	73.734271
745.500000	73.786447
744.000000	73.913033
742.500000	73.717851
741.000000	73.694264
739.500000	73.671837
738.000000	73.800447
736.500000	73.664228
735.000000	73.683363
733.500000	73.680865
732.000000	73.651811
730.500000	73.620181
729.000000	73.549913
727.500000	73.506056
726.000000	73.450032
724.500000	73.634903
723.000000	73.550090
721.500000	73.464965
720.000000	73.429337
718.500000	73.522517
717.000000	73.482201
715.500000	73.479761
714.000000	73.605700
712.500000	73.375330
711.000000	73.508508
709.500000	73.472817
708.000000	73.566511
706.500000	73.411528
705.000000	73.492619
703.500000	73.407671
702.000000	73.439021
700.500000	73.409568
699.000000	73.431547
697.500000	73.301477
696.000000	73.310496
694.500000	73.283914
693.000000	73.258042
691.500000	73.241657
690.000000	73.184381
688.500000	73.365891
687.000000	73.326772
685.500000	73.296641
684.000000	73.240250
682.500000	73.225379
681.000000	73.316055
679.500000	73.311765
678.000000	73.229485
676.500000	73.149827
675.000000	73.234818
673.500000	73.106501
672.000000	73.109951
670.500000	73.162488
669.000000	73.124416
667.500000	73.159475
666.000000	73.114419
664.500000	73.098577
663.000000	73.118337
661.500000	73.079751
660.000000	73.030637
658.500000	72.977011
657.000000	73.007233
655.500000	72.999141
654.000000	72.998876
652.500000	72.981211
651.000000	72.957881
649.500000	72.959044
648.000000	72.964147
646.500000	72.936763
645.000000	72.918193
643.500000	72.904235
642.000000	72.917275
640.500000	72.845497
639.000000	72.821781
637.500000	72.816458
636.000000	72.777953
634.500000	72.772996
633.000000	72.788431
631.500000	72.743842
630.000000	72.659378
628.500000	72.709394
627.000000	72.712175
625.500000	72.677628
624.000000	72.733771
622.500000	72.688469
621.000000	72.627522
619.500000	72.625138
618.000000	72.604655
616.500000	72.582328
615.000000	72.588925
613.500000	72.575633
612.000000	72.539178
610.500000	72.515559
609.000000	72.456567
607.500000	72.438652
606.000000	72.427069
604.500000	72.358230
603.000000	72.334630
601.500000	72.352144
600.000000	72.335997
598.500000	72.322445
597.000000	72.349404
595.500000	72.317378
594.000000	72.307823
592.500000	72.275067
591.000000	72.196099
589.500000	72.194563
588.000000	72.170950
586.500000	72.125624
585.000000	72.136915
583.500000	72.106104
582.000000	72.080239
580.500000	72.060849
579.000000	72.059270
577.500000	72.049656
576.000000	71.982817
574.500000	71.934947
573.000000	71.972116
571.500000	71.968468
570.000000	71.898937
568.500000	71.833650
567.000000	71.779957
565.500000	71.722292
564.000000	71.642070
562.500000	71.654901
561.000000	71.795077
559.500000	71.900689
558.000000	71.881998
556.500000	71.868129
555.000000	71.851707
553.500000	71.848311
552.000000	71.832371
550.500000	71.799794
549.000000	71.738908
547.500000	71.721816
546.000000	71.740180
544.500000	71.707272
543.000000	71.677115
541.500000	71.653245
540.000000	71.614988
538.500000	71.602569
537.000000	71.608649
535.500000	71.584361
534.000000	71.554493
532.500000	71.542074
531.000000	71.507409
529.500000	71.499881
528.000000	71.462768
526.500000	71.415518
525.000000	71.402174
523.500000	71.366676
522.000000	71.291538
520.500000	71.201251
519.000000	71.076914
517.500000	70.937824
516.000000	70.791349
514.500000	70.605485
513.000000	70.386937
511.500000	70.128784
510.000000	69.883333
508.500000	69.661588
507.000000	69.431243
505.500000	69.282322
504.000000	69.145904
502.500000	69.051625
501.000000	69.068271
499.500000	69.182413
498.000000	69.250275
496.500000	69.295952
495.000000	69.444543
493.500000	69.574700
492.000000	69.727519
490.500000	69.866678
489.000000	70.008498
487.500000	70.158310
486.000000	70.259138
484.500000	70.422121
483.000000	70.706761
481.500000	71.045518
480.000000	71.057636
478.500000	70.797488
477.000000	70.525752
475.500000	70.293641
474.000000	70.179924
472.500000	70.030978
471.000000	69.851080
469.500000	69.655299
468.000000	69.400583
466.500000	69.171380
465.000000	68.912474
463.500000	68.636468
462.000000	68.443023
460.500000	68.336148
459.000000	68.220137
457.500000	68.146996
456.000000	68.135585
454.500000	68.155562
453.000000	68.113205
451.500000	68.120262
450.000000	68.178520
448.500000	68.216152
447.000000	68.154399
445.500000	68.269763
444.000000	68.551719
442.500000	68.625070
441.000000	68.517169
439.500000	68.406961
438.000000	68.333854
436.500000	68.275082
435.000000	68.176130
433.500000	68.105931
432.000000	68.074071
430.500000	67.989039
429.000000	67.926529
427.500000	67.820470
426.000000	67.752856
424.500000	67.670187
423.000000	67.595941
421.500000	67.455138
420.000000	67.430433
418.500000	67.229175
417.000000	67.198063
415.500000	67.036756
414.000000	66.961066
412.500000	66.808067
411.000000	66.797822
409.500000	66.634845
408.000000	66.511294
406.500000	66.378716
405.000000	66.274737
403.500000	66.111490
402.000000	65.946252
400.500000	65.778995
399.000000	65.643427
397.500000	65.497187
396.000000	65.339497
394.500000	65.230633
393.000000	65.057576
391.500000	64.872075
390.000000	64.605572
388.500000	64.326917
387.000000	64.176623
385.500000	63.966896
384.000000	63.613039
382.500000	63.221819
381.000000	62.826974
379.500000	62.505338
378.000000	61.971395
376.500000	62.636737
375.000000	62.440958
373.500000	61.264331
372.000000	60.208138
370.500000	58.876258
369.000000	57.491973
367.500000	55.888891
366.000000	53.867748
364.500000	51.673276
363.000000	49.066528
361.500000	45.998871
360.000000	42.445462
358.500000	38.390654
357.000000	33.986530
355.500000	29.152225
354.000000	24.017344
352.500000	19.041677
351.000000	14.331570
349.500000	10.183334
348.000000	6.800625
346.500000	4.275117
345.000000	2.501542
343.500000	1.374186
342.000000	0.725713
340.500000	0.334208
339.000000	0.165138
337.500000	0.079398
336.000000	0.063438
334.500000	0.067006
333.000000	0.056753
331.500000	0.062376
330.000000	0.063860
328.500000	0.062875
327.000000	0.063980
325.500000	0.074217
324.000000	0.074499
322.500000	0.081675
321.000000	0.089088
319.500000	0.071107
318.000000	0.003763
316.500000	-0.025073
315.000000	-0.032687
313.500000	-0.036576
312.000000	-0.036702
310.500000	-0.031921
309.000000	-0.025184
307.500000	-0.021461
306.000000	-0.014499
304.500000	-0.012616
303.000000	-0.016738
301.500000	-0.015409
300.000000	-0.015692
