PE UV       SUBTECH     SPECTRUM    ASCII       PEDS        4.00        
   -1
Sample41.Sample.Raw.asc
20/12/15
12:22:20.00
20/12/15
12:22:20.00
Administrator

300.000000
1
Lambda 850
850L1710193
PerkinElmer UV WinLab 6.4.0.973 / 2.02.06 Lambda 800 UV/VIS, Jan 28 2016 16:58:34

0
0
2
0
0
UV/VIS
1
1
1
RBeamAtt,SBeamAtt,60mm sphere
0
0
0
0
Fix
 
0
0.2
0
0
0
 
 
 
0
 
0
319.2
0
Front
100
 
S:100 R:100
 
0
0
0
 
0
 
 
 
0
 
 
0
0
0
0
0
 
 
 
 
0
0


0
0
#HDR
-1
-1
#GR
nm
%T
1.0
0.0
750.000000
-1.500000
301
8
75.512359
-0.037759
#DATA
750.000000	75.208871
748.500000	75.295282
747.000000	75.313892
745.500000	75.512359
744.000000	75.450760
742.500000	75.363757
741.000000	75.199935
739.500000	75.198376
738.000000	75.394462
736.500000	75.484995
735.000000	75.406232
733.500000	75.240146
732.000000	75.245949
730.500000	75.335305
729.000000	75.253527
727.500000	75.199051
726.000000	75.263471
724.500000	75.302996
723.000000	75.209435
721.500000	75.270285
720.000000	75.108560
718.500000	75.233224
717.000000	75.189958
715.500000	75.264624
714.000000	75.197258
712.500000	75.199930
711.000000	75.139141
709.500000	75.003071
708.000000	75.095828
706.500000	75.094813
705.000000	75.060304
703.500000	74.997555
702.000000	75.031743
700.500000	75.015692
699.000000	74.975262
697.500000	74.997145
696.000000	74.949977
694.500000	74.925280
693.000000	74.906980
691.500000	74.836677
690.000000	74.812216
688.500000	74.962190
687.000000	74.934109
685.500000	74.859532
684.000000	74.865899
682.500000	74.923631
681.000000	74.886549
679.500000	74.836262
678.000000	74.786858
676.500000	74.852248
675.000000	74.881078
673.500000	74.818998
672.000000	74.823381
670.500000	74.762507
669.000000	74.687808
667.500000	74.777601
666.000000	74.851417
664.500000	74.763366
663.000000	74.732975
661.500000	74.778042
660.000000	74.720133
658.500000	74.657755
657.000000	74.636127
655.500000	74.674383
654.000000	74.625438
652.500000	74.574933
651.000000	74.650327
649.500000	74.598504
648.000000	74.532773
646.500000	74.583557
645.000000	74.530515
643.500000	74.534114
642.000000	74.546897
640.500000	74.500367
639.000000	74.450219
637.500000	74.433473
636.000000	74.509788
634.500000	74.491165
633.000000	74.442076
631.500000	74.388711
630.000000	74.371547
628.500000	74.360494
627.000000	74.362402
625.500000	74.331653
624.000000	74.321711
622.500000	74.277714
621.000000	74.294590
619.500000	74.287872
618.000000	74.266066
616.500000	74.241056
615.000000	74.205067
613.500000	74.152318
612.000000	74.148552
610.500000	74.140658
609.000000	74.109244
607.500000	74.106345
606.000000	74.031006
604.500000	74.019234
603.000000	74.035407
601.500000	74.026562
600.000000	74.016346
598.500000	74.019321
597.000000	73.985233
595.500000	73.934203
594.000000	73.944901
592.500000	73.905114
591.000000	73.890555
589.500000	73.881919
588.000000	73.896037
586.500000	73.841970
585.000000	73.802796
583.500000	73.797690
582.000000	73.792862
580.500000	73.766250
579.000000	73.727761
577.500000	73.688263
576.000000	73.664042
574.500000	73.637267
573.000000	73.653420
571.500000	73.668803
570.000000	73.617071
568.500000	73.583141
567.000000	73.548460
565.500000	73.482957
564.000000	73.473879
562.500000	73.452292
561.000000	73.590659
559.500000	73.733721
558.000000	73.696189
556.500000	73.700569
555.000000	73.692600
553.500000	73.669782
552.000000	73.679159
550.500000	73.644793
549.000000	73.634908
547.500000	73.635989
546.000000	73.636616
544.500000	73.618582
543.000000	73.565216
541.500000	73.601554
540.000000	73.621622
538.500000	73.586629
537.000000	73.585708
535.500000	73.604393
534.000000	73.614982
532.500000	73.609608
531.000000	73.563567
529.500000	73.558610
528.000000	73.575748
526.500000	73.576714
525.000000	73.562093
523.500000	73.529227
522.000000	73.477999
520.500000	73.383642
519.000000	73.273286
517.500000	73.146858
516.000000	72.994747
514.500000	72.802316
513.000000	72.558382
511.500000	72.299855
510.000000	72.049994
508.500000	71.809007
507.000000	71.587748
505.500000	71.371317
504.000000	71.180022
502.500000	71.069018
501.000000	71.009200
499.500000	71.002398
498.000000	71.014197
496.500000	71.097799
495.000000	71.152762
493.500000	71.208173
492.000000	71.331196
490.500000	71.484107
489.000000	71.602773
487.500000	71.701962
486.000000	71.871805
484.500000	72.081046
483.000000	72.439333
481.500000	72.828165
480.000000	72.987744
478.500000	72.763702
477.000000	72.521139
475.500000	72.375718
474.000000	72.270038
472.500000	72.167617
471.000000	72.013529
469.500000	71.800142
468.000000	71.549834
466.500000	71.278655
465.000000	71.000389
463.500000	70.729137
462.000000	70.513920
460.500000	70.358365
459.000000	70.214539
457.500000	70.124931
456.000000	70.077103
454.500000	70.039227
453.000000	70.033798
451.500000	70.000809
450.000000	69.968262
448.500000	69.953283
447.000000	69.920154
445.500000	69.968161
444.000000	70.229017
442.500000	70.339394
441.000000	70.299534
439.500000	70.238089
438.000000	70.121670
436.500000	70.120046
435.000000	70.047611
433.500000	69.959979
432.000000	69.874100
430.500000	69.841331
429.000000	69.802704
427.500000	69.801638
426.000000	69.691947
424.500000	69.556028
423.000000	69.493682
421.500000	69.441911
420.000000	69.382496
418.500000	69.283741
417.000000	69.193403
415.500000	69.121916
414.000000	69.021157
412.500000	68.957865
411.000000	68.866051
409.500000	68.856165
408.000000	68.659580
406.500000	68.605873
405.000000	68.518822
403.500000	68.368721
402.000000	68.280376
400.500000	68.161228
399.000000	68.038557
397.500000	67.917894
396.000000	67.726916
394.500000	67.637190
393.000000	67.490800
391.500000	67.364040
390.000000	67.202077
388.500000	67.022664
387.000000	66.873305
385.500000	66.620051
384.000000	66.334619
382.500000	66.120284
381.000000	65.977037
379.500000	65.603362
378.000000	65.719079
376.500000	65.913240
375.000000	66.060214
373.500000	65.266484
372.000000	64.225703
370.500000	63.341853
369.000000	62.108291
367.500000	60.852578
366.000000	59.277001
364.500000	57.509876
363.000000	55.373978
361.500000	52.787626
360.000000	49.926115
358.500000	46.403708
357.000000	42.429278
355.500000	37.983873
354.000000	33.034968
352.500000	27.944025
351.000000	22.756472
349.500000	17.639125
348.000000	12.939502
346.500000	8.915154
345.000000	5.651018
343.500000	3.232077
342.000000	1.629808
340.500000	0.725786
339.000000	0.285725
337.500000	0.112349
336.000000	0.063760
334.500000	0.069942
333.000000	0.054067
331.500000	0.065784
330.000000	0.068075
328.500000	0.080517
327.000000	0.069467
325.500000	0.071614
324.000000	0.078679
322.500000	0.074574
321.000000	0.074443
319.500000	0.060427
318.000000	0.001034
316.500000	-0.027521
315.000000	-0.031564
313.500000	-0.037759
312.000000	-0.033126
310.500000	-0.037751
309.000000	-0.032939
307.500000	-0.021376
306.000000	-0.015717
304.500000	-0.013843
303.000000	-0.019480
301.500000	-0.020056
300.000000	-0.020266
