PE UV       SUBTECH     SPECTRUM    ASCII       PEDS        4.00        
   -1
Sample36.Sample.Raw.asc
20/12/15
12:05:00.00
20/12/15
12:05:00.00
Administrator

300.000000
1
Lambda 850
850L1710193
PerkinElmer UV WinLab 6.4.0.973 / 2.02.06 Lambda 800 UV/VIS, Jan 28 2016 16:58:34

0
0
2
0
0
UV/VIS
1
1
1
RBeamAtt,SBeamAtt,60mm sphere
0
0
0
0
Fix
 
0
0.2
0
0
0
 
 
 
0
 
0
319.2
0
Front
100
 
S:100 R:100
 
0
0
0
 
0
 
 
 
0
 
 
0
0
0
0
0
 
 
 
 
0
0


0
0
#HDR
-1
-1
#GR
nm
%T
1.0
0.0
750.000000
-1.500000
301
8
74.222550
-0.040958
#DATA
750.000000	73.934347
748.500000	74.190159
747.000000	74.199065
745.500000	74.199238
744.000000	74.218881
742.500000	74.206302
741.000000	74.052778
739.500000	74.054348
738.000000	74.102642
736.500000	74.222550
735.000000	74.063011
733.500000	74.072989
732.000000	74.061624
730.500000	74.071622
729.000000	74.110355
727.500000	74.050309
726.000000	74.027832
724.500000	74.025866
723.000000	73.975841
721.500000	73.952106
720.000000	73.900059
718.500000	74.025279
717.000000	73.967338
715.500000	73.954473
714.000000	73.858687
712.500000	73.944252
711.000000	73.966443
709.500000	73.878415
708.000000	73.839338
706.500000	73.950868
705.000000	73.879564
703.500000	73.783428
702.000000	73.851002
700.500000	73.784002
699.000000	73.758299
697.500000	73.792878
696.000000	73.746969
694.500000	73.727478
693.000000	73.745035
691.500000	73.713179
690.000000	73.608148
688.500000	73.787686
687.000000	73.711554
685.500000	73.729331
684.000000	73.686690
682.500000	73.795574
681.000000	73.719406
679.500000	73.671672
678.000000	73.712242
676.500000	73.649837
675.000000	73.709316
673.500000	73.604234
672.000000	73.615469
670.500000	73.646681
669.000000	73.524815
667.500000	73.565058
666.000000	73.594423
664.500000	73.571248
663.000000	73.555021
661.500000	73.571453
660.000000	73.526426
658.500000	73.519636
657.000000	73.479721
655.500000	73.492569
654.000000	73.442928
652.500000	73.398792
651.000000	73.408179
649.500000	73.381176
648.000000	73.434280
646.500000	73.405727
645.000000	73.349104
643.500000	73.304830
642.000000	73.326992
640.500000	73.257207
639.000000	73.248020
637.500000	73.206369
636.000000	73.270906
634.500000	73.243615
633.000000	73.188472
631.500000	73.157365
630.000000	73.137196
628.500000	73.126185
627.000000	73.137206
625.500000	73.113818
624.000000	73.142816
622.500000	73.084017
621.000000	73.064021
619.500000	73.094596
618.000000	73.025852
616.500000	73.008476
615.000000	73.005082
613.500000	72.904238
612.000000	72.911678
610.500000	72.907843
609.000000	72.858011
607.500000	72.868676
606.000000	72.842590
604.500000	72.797919
603.000000	72.810757
601.500000	72.807764
600.000000	72.753506
598.500000	72.719091
597.000000	72.671030
595.500000	72.644917
594.000000	72.659221
592.500000	72.649327
591.000000	72.596626
589.500000	72.602485
588.000000	72.599064
586.500000	72.518094
585.000000	72.495443
583.500000	72.457438
582.000000	72.473975
580.500000	72.437894
579.000000	72.349729
577.500000	72.359028
576.000000	72.326724
574.500000	72.248775
573.000000	72.272323
571.500000	72.285131
570.000000	72.218039
568.500000	72.139670
567.000000	72.096858
565.500000	72.016956
564.000000	72.005664
562.500000	72.020926
561.000000	72.138792
559.500000	72.245162
558.000000	72.226761
556.500000	72.203373
555.000000	72.190445
553.500000	72.169191
552.000000	72.131355
550.500000	72.099214
549.000000	72.070983
547.500000	72.063703
546.000000	72.071588
544.500000	72.030669
543.000000	71.943789
541.500000	71.929185
540.000000	71.943514
538.500000	71.918758
537.000000	71.891981
535.500000	71.904908
534.000000	71.889971
532.500000	71.845050
531.000000	71.792560
529.500000	71.756774
528.000000	71.737423
526.500000	71.721892
525.000000	71.676419
523.500000	71.605407
522.000000	71.526010
520.500000	71.435920
519.000000	71.337826
517.500000	71.190656
516.000000	71.025593
514.500000	70.855453
513.000000	70.616021
511.500000	70.359370
510.000000	70.119209
508.500000	69.885776
507.000000	69.686814
505.500000	69.502423
504.000000	69.342915
502.500000	69.272126
501.000000	69.284417
499.500000	69.302342
498.000000	69.390331
496.500000	69.505378
495.000000	69.600650
493.500000	69.704715
492.000000	69.847069
490.500000	70.010468
489.000000	70.152306
487.500000	70.268408
486.000000	70.336128
484.500000	70.482541
483.000000	70.785435
481.500000	71.133218
480.000000	71.129448
478.500000	70.856894
477.000000	70.601196
475.500000	70.379487
474.000000	70.233945
472.500000	70.096687
471.000000	69.896053
469.500000	69.710655
468.000000	69.456965
466.500000	69.175746
465.000000	68.893860
463.500000	68.628384
462.000000	68.399301
460.500000	68.240309
459.000000	68.142570
457.500000	68.052949
456.000000	68.073215
454.500000	68.049000
453.000000	68.076467
451.500000	68.062814
450.000000	68.056486
448.500000	68.034547
447.000000	68.005526
445.500000	68.075438
444.000000	68.370858
442.500000	68.465209
441.000000	68.374282
439.500000	68.285784
438.000000	68.217179
436.500000	68.190871
435.000000	68.089389
433.500000	68.014613
432.000000	67.903584
430.500000	67.835771
429.000000	67.814591
427.500000	67.723885
426.000000	67.626995
424.500000	67.565653
423.000000	67.468612
421.500000	67.419935
420.000000	67.308001
418.500000	67.177903
417.000000	67.047083
415.500000	66.973619
414.000000	66.816869
412.500000	66.817563
411.000000	66.660354
409.500000	66.569248
408.000000	66.447455
406.500000	66.408672
405.000000	66.180716
403.500000	66.011104
402.000000	65.891609
400.500000	65.745830
399.000000	65.619030
397.500000	65.444566
396.000000	65.272461
394.500000	65.171849
393.000000	64.954133
391.500000	64.757318
390.000000	64.572259
388.500000	64.307783
387.000000	64.113186
385.500000	63.749500
384.000000	63.553209
382.500000	63.169099
381.000000	62.889241
379.500000	62.404191
378.000000	62.182617
376.500000	62.366812
375.000000	62.379763
373.500000	61.293985
372.000000	60.078808
370.500000	58.800097
369.000000	57.320122
367.500000	55.668762
366.000000	53.618189
364.500000	51.217175
363.000000	48.375430
361.500000	45.179099
360.000000	41.464600
358.500000	37.258980
357.000000	32.519629
355.500000	27.516745
354.000000	22.357009
352.500000	17.379758
351.000000	12.797269
349.500000	8.893711
348.000000	5.800470
346.500000	3.564147
345.000000	2.054430
343.500000	1.129489
342.000000	0.561942
340.500000	0.266149
339.000000	0.115752
337.500000	0.059919
336.000000	0.057283
334.500000	0.057714
333.000000	0.054994
331.500000	0.054372
330.000000	0.048943
328.500000	0.053554
327.000000	0.067052
325.500000	0.063419
324.000000	0.061919
322.500000	0.066041
321.000000	0.067650
319.500000	0.057909
318.000000	-0.005451
316.500000	-0.034284
315.000000	-0.040958
313.500000	-0.038792
312.000000	-0.038302
310.500000	-0.029749
309.000000	-0.024445
307.500000	-0.022322
306.000000	-0.014297
304.500000	-0.009766
303.000000	-0.011783
301.500000	-0.011501
300.000000	-0.018172
