PE UV       SUBTECH     SPECTRUM    ASCII       PEDS        4.00        
   -1
Sample34.Sample.Raw.asc
20/12/15
11:58:52.00
20/12/15
11:58:52.00
Administrator

300.000000
1
Lambda 850
850L1710193
PerkinElmer UV WinLab 6.4.0.973 / 2.02.06 Lambda 800 UV/VIS, Jan 28 2016 16:58:34

0
0
2
0
0
UV/VIS
1
1
1
RBeamAtt,SBeamAtt,60mm sphere
0
0
0
0
Fix
 
0
0.2
0
0
0
 
 
 
0
 
0
319.2
0
Front
100
 
S:100 R:100
 
0
0
0
 
0
 
 
 
0
 
 
0
0
0
0
0
 
 
 
 
0
0


0
0
#HDR
-1
-1
#GR
nm
%T
1.0
0.0
750.000000
-1.500000
301
8
74.477531
-0.020667
#DATA
750.000000	74.147076
748.500000	74.209643
747.000000	74.346088
745.500000	74.266931
744.000000	74.477531
742.500000	74.305144
741.000000	74.124198
739.500000	74.279507
738.000000	74.312435
736.500000	74.327160
735.000000	74.279247
733.500000	74.353628
732.000000	74.236015
730.500000	74.446506
729.000000	74.324649
727.500000	74.245695
726.000000	74.164513
724.500000	74.253432
723.000000	74.202020
721.500000	74.229844
720.000000	74.107562
718.500000	74.129692
717.000000	74.086448
715.500000	74.131160
714.000000	74.144483
712.500000	74.047501
711.000000	74.079888
709.500000	73.977676
708.000000	74.027534
706.500000	74.109330
705.000000	74.036763
703.500000	74.002096
702.000000	74.026712
700.500000	73.902606
699.000000	73.913295
697.500000	73.984180
696.000000	73.895449
694.500000	73.910770
693.000000	73.850970
691.500000	73.766295
690.000000	73.729649
688.500000	73.961420
687.000000	73.868155
685.500000	73.847511
684.000000	73.825228
682.500000	73.890903
681.000000	73.870755
679.500000	73.860298
678.000000	73.796410
676.500000	73.798776
675.000000	73.810570
673.500000	73.802405
672.000000	73.845110
670.500000	73.853155
669.000000	73.769599
667.500000	73.746341
666.000000	73.797927
664.500000	73.704955
663.000000	73.757163
661.500000	73.781519
660.000000	73.725569
658.500000	73.666644
657.000000	73.685136
655.500000	73.697058
654.000000	73.631153
652.500000	73.605371
651.000000	73.601802
649.500000	73.539465
648.000000	73.497084
646.500000	73.513774
645.000000	73.494478
643.500000	73.474273
642.000000	73.459465
640.500000	73.488433
639.000000	73.487275
637.500000	73.458488
636.000000	73.502805
634.500000	73.405652
633.000000	73.360020
631.500000	73.366225
630.000000	73.330737
628.500000	73.290590
627.000000	73.323531
625.500000	73.294702
624.000000	73.263853
622.500000	73.189045
621.000000	73.200806
619.500000	73.242920
618.000000	73.228405
616.500000	73.226631
615.000000	73.149690
613.500000	73.114036
612.000000	73.114787
610.500000	73.119112
609.000000	73.061054
607.500000	73.064631
606.000000	73.011645
604.500000	72.965279
603.000000	72.996582
601.500000	72.968065
600.000000	72.942998
598.500000	72.921773
597.000000	72.864606
595.500000	72.809891
594.000000	72.827374
592.500000	72.825014
591.000000	72.786987
589.500000	72.766828
588.000000	72.780809
586.500000	72.714337
585.000000	72.681100
583.500000	72.654393
582.000000	72.641620
580.500000	72.644268
579.000000	72.572695
577.500000	72.523255
576.000000	72.493920
574.500000	72.456092
573.000000	72.481323
571.500000	72.494455
570.000000	72.433053
568.500000	72.326020
567.000000	72.278082
565.500000	72.241392
564.000000	72.238772
562.500000	72.220803
561.000000	72.308484
559.500000	72.424423
558.000000	72.405911
556.500000	72.390966
555.000000	72.399296
553.500000	72.368786
552.000000	72.315896
550.500000	72.276300
549.000000	72.276354
547.500000	72.295189
546.000000	72.265886
544.500000	72.216963
543.000000	72.171332
541.500000	72.149544
540.000000	72.127036
538.500000	72.118298
537.000000	72.114868
535.500000	72.077538
534.000000	72.020011
532.500000	71.989271
531.000000	71.959837
529.500000	71.937832
528.000000	71.931751
526.500000	71.899599
525.000000	71.867859
523.500000	71.835357
522.000000	71.753752
520.500000	71.654738
519.000000	71.562613
517.500000	71.403920
516.000000	71.234636
514.500000	71.065229
513.000000	70.837335
511.500000	70.587701
510.000000	70.336831
508.500000	70.083974
507.000000	69.886027
505.500000	69.727360
504.000000	69.574553
502.500000	69.480545
501.000000	69.469033
499.500000	69.503728
498.000000	69.586081
496.500000	69.708423
495.000000	69.778091
493.500000	69.884626
492.000000	70.061124
490.500000	70.236013
489.000000	70.350557
487.500000	70.497900
486.000000	70.629803
484.500000	70.812752
483.000000	71.046608
481.500000	71.339398
480.000000	71.389426
478.500000	71.112516
477.000000	70.815191
475.500000	70.618621
474.000000	70.487331
472.500000	70.345186
471.000000	70.178717
469.500000	69.963656
468.000000	69.715926
466.500000	69.413485
465.000000	69.152118
463.500000	68.883273
462.000000	68.685852
460.500000	68.533028
459.000000	68.429004
457.500000	68.334989
456.000000	68.338902
454.500000	68.291786
453.000000	68.319228
451.500000	68.367765
450.000000	68.380704
448.500000	68.387656
447.000000	68.360721
445.500000	68.390572
444.000000	68.671061
442.500000	68.759200
441.000000	68.631486
439.500000	68.553274
438.000000	68.492126
436.500000	68.430023
435.000000	68.389258
433.500000	68.301230
432.000000	68.200868
430.500000	68.086203
429.000000	68.025922
427.500000	68.054475
426.000000	67.953830
424.500000	67.855016
423.000000	67.822446
421.500000	67.718448
420.000000	67.608899
418.500000	67.522855
417.000000	67.343912
415.500000	67.294031
414.000000	67.127351
412.500000	67.051400
411.000000	67.001129
409.500000	66.855433
408.000000	66.764097
406.500000	66.681236
405.000000	66.503484
403.500000	66.398137
402.000000	66.202889
400.500000	66.080296
399.000000	65.959379
397.500000	65.800844
396.000000	65.612461
394.500000	65.514356
393.000000	65.250679
391.500000	65.150832
390.000000	64.948887
388.500000	64.768281
387.000000	64.390073
385.500000	64.176008
384.000000	63.928485
382.500000	63.545669
381.000000	63.252675
379.500000	62.792909
378.000000	62.621078
376.500000	62.930081
375.000000	62.743561
373.500000	61.831353
372.000000	60.536216
370.500000	59.294035
369.000000	57.721480
367.500000	55.989718
366.000000	54.114529
364.500000	51.644968
363.000000	48.771502
361.500000	45.645317
360.000000	41.888787
358.500000	37.615630
357.000000	32.947337
355.500000	27.834334
354.000000	22.682606
352.500000	17.622106
351.000000	13.028007
349.500000	9.074920
348.000000	5.956600
346.500000	3.628673
345.000000	2.110448
343.500000	1.129212
342.000000	0.552990
340.500000	0.241189
339.000000	0.095858
337.500000	0.052429
336.000000	0.030168
334.500000	0.025568
333.000000	0.038487
331.500000	0.034052
330.000000	0.046436
328.500000	0.049370
327.000000	0.058416
325.500000	0.056062
324.000000	0.062477
322.500000	0.066412
321.000000	0.076304
319.500000	0.069939
318.000000	0.012405
316.500000	-0.014183
315.000000	-0.020667
313.500000	-0.014935
312.000000	-0.011481
310.500000	-0.016193
309.000000	-0.012836
307.500000	-0.010404
306.000000	-0.001420
304.500000	0.004551
303.000000	-0.001140
301.500000	-0.007414
300.000000	-0.010751
