PE UV       SUBTECH     SPECTRUM    ASCII       PEDS        4.00        
   -1
Sample158.Sample.Raw.asc
21/01/27
12:37:19.00
21/01/27
12:37:19.00
Administrator

300.000000
1
Lambda 850
850L1710193
PerkinElmer UV WinLab 6.4.0.973 / 2.02.06 Lambda 800 UV/VIS, Jan 28 2016 16:58:34

0
0
2
0
0
UV/VIS
1
1
1
RBeamAtt,SBeamAtt,60mm sphere
0
0
0
0
Fix
 
0
0.2
0
0
0
 
 
 
0
 
0
319.2
0
Front
100
 
S:100 R:100
 
0
0
0
 
0
 
 
 
0
 
 
0
0
0
0
0
 
 
 
 
0
0


0
0
#HDR
-1
-1
#GR
nm
%T
1.0
0.0
750.000000
-1.500000
301
8
74.684838
-0.030298
#DATA
750.000000	74.231963
748.500000	74.591791
747.000000	74.534914
745.500000	74.684838
744.000000	74.526278
742.500000	74.464625
741.000000	74.479745
739.500000	74.621306
738.000000	74.558458
736.500000	74.589877
735.000000	74.381337
733.500000	74.439977
732.000000	74.311955
730.500000	74.401677
729.000000	74.326990
727.500000	74.360700
726.000000	74.264500
724.500000	74.413325
723.000000	74.291393
721.500000	74.254538
720.000000	74.272109
718.500000	74.205363
717.000000	74.176037
715.500000	74.114874
714.000000	74.112419
712.500000	73.947334
711.000000	74.066353
709.500000	74.018906
708.000000	74.048512
706.500000	74.033731
705.000000	73.969597
703.500000	74.045551
702.000000	73.967139
700.500000	73.960424
699.000000	73.936119
697.500000	73.901104
696.000000	73.804535
694.500000	73.809227
693.000000	73.832029
691.500000	73.729251
690.000000	73.543512
688.500000	73.574801
687.000000	73.638450
685.500000	73.719805
684.000000	73.692464
682.500000	73.654232
681.000000	73.529914
679.500000	73.492223
678.000000	73.463838
676.500000	73.439511
675.000000	73.405216
673.500000	73.400698
672.000000	73.342443
670.500000	73.328839
669.000000	73.326411
667.500000	73.232319
666.000000	73.210822
664.500000	73.161282
663.000000	73.046241
661.500000	73.028518
660.000000	72.978389
658.500000	72.928335
657.000000	72.959060
655.500000	72.802562
654.000000	72.808514
652.500000	72.769026
651.000000	72.701879
649.500000	72.631485
648.000000	72.501185
646.500000	72.506410
645.000000	72.475785
643.500000	72.394540
642.000000	72.310924
640.500000	72.189551
639.000000	72.183238
637.500000	72.181983
636.000000	72.006152
634.500000	71.912485
633.000000	71.894203
631.500000	71.807741
630.000000	71.752919
628.500000	71.660080
627.000000	71.586980
625.500000	71.555769
624.000000	71.471360
622.500000	71.375798
621.000000	71.297023
619.500000	71.220083
618.000000	71.143290
616.500000	71.044578
615.000000	70.977142
613.500000	70.865557
612.000000	70.783061
610.500000	70.738301
609.000000	70.598721
607.500000	70.525144
606.000000	70.428871
604.500000	70.366209
603.000000	70.282703
601.500000	70.156553
600.000000	70.054531
598.500000	69.975907
597.000000	69.908652
595.500000	69.842534
594.000000	69.718667
592.500000	69.602013
591.000000	69.489043
589.500000	69.405426
588.000000	69.345035
586.500000	69.280772
585.000000	69.178628
583.500000	69.057852
582.000000	68.945426
580.500000	68.882296
579.000000	68.811796
577.500000	68.700936
576.000000	68.588998
574.500000	68.500092
573.000000	68.414896
571.500000	68.296605
570.000000	68.176798
568.500000	68.088933
567.000000	67.979380
565.500000	67.863939
564.000000	67.794567
562.500000	67.726469
561.000000	67.775158
559.500000	67.811799
558.000000	67.715059
556.500000	67.618851
555.000000	67.537871
553.500000	67.475040
552.000000	67.399450
550.500000	67.330471
549.000000	67.249093
547.500000	67.168712
546.000000	67.113076
544.500000	67.052894
543.000000	66.993184
541.500000	66.902386
540.000000	66.812662
538.500000	66.755745
537.000000	66.705685
535.500000	66.635321
534.000000	66.547972
532.500000	66.496314
531.000000	66.484840
529.500000	66.442543
528.000000	66.367997
526.500000	66.276763
525.000000	66.205017
523.500000	66.100340
522.000000	65.987023
520.500000	65.861170
519.000000	65.711734
517.500000	65.549451
516.000000	65.346643
514.500000	65.092208
513.000000	64.821586
511.500000	64.523980
510.000000	64.221022
508.500000	63.937508
507.000000	63.602386
505.500000	63.316672
504.000000	63.035231
502.500000	62.801491
501.000000	62.668802
499.500000	62.572666
498.000000	62.436480
496.500000	62.325163
495.000000	62.271246
493.500000	62.195088
492.000000	62.228958
490.500000	62.246450
489.000000	62.323006
487.500000	62.348087
486.000000	62.408530
484.500000	62.549270
483.000000	62.865391
481.500000	63.232325
480.000000	63.347805
478.500000	63.135898
477.000000	62.907900
475.500000	62.761627
474.000000	62.641716
472.500000	62.471701
471.000000	62.300121
469.500000	62.074288
468.000000	61.797504
466.500000	61.513111
465.000000	61.243175
463.500000	60.929593
462.000000	60.638504
460.500000	60.418583
459.000000	60.233291
457.500000	60.066869
456.000000	59.907479
454.500000	59.786355
453.000000	59.717154
451.500000	59.616710
450.000000	59.501557
448.500000	59.430104
447.000000	59.339856
445.500000	59.272270
444.000000	59.444571
442.500000	59.458539
441.000000	59.378508
439.500000	59.261894
438.000000	59.192295
436.500000	59.060377
435.000000	58.973089
433.500000	58.877201
432.000000	58.780256
430.500000	58.681093
429.000000	58.577382
427.500000	58.462574
426.000000	58.376301
424.500000	58.275962
423.000000	58.173991
421.500000	58.131663
420.000000	58.017898
418.500000	57.943735
417.000000	57.834059
415.500000	57.715934
414.000000	57.631848
412.500000	57.586451
411.000000	57.451245
409.500000	57.322502
408.000000	57.235652
406.500000	57.149584
405.000000	56.964889
403.500000	56.896640
402.000000	56.780817
400.500000	56.743046
399.000000	56.653313
397.500000	56.573235
396.000000	56.407900
394.500000	56.334633
393.000000	56.185753
391.500000	56.193624
390.000000	56.082211
388.500000	55.945253
387.000000	55.804139
385.500000	55.603374
384.000000	55.444331
382.500000	55.292460
381.000000	55.095415
379.500000	54.912798
378.000000	54.732792
376.500000	55.316397
375.000000	55.403162
373.500000	54.799517
372.000000	54.032053
370.500000	53.314231
369.000000	52.441585
367.500000	51.451600
366.000000	50.242676
364.500000	48.840933
363.000000	47.162999
361.500000	45.057560
360.000000	42.803359
358.500000	39.900975
357.000000	36.588305
355.500000	32.919991
354.000000	28.810126
352.500000	24.410347
351.000000	19.894031
349.500000	15.511903
348.000000	11.464593
346.500000	7.932369
345.000000	5.056868
343.500000	2.899163
342.000000	1.466701
340.500000	0.644389
339.000000	0.249957
337.500000	0.095692
336.000000	0.048879
334.500000	0.037040
333.000000	0.036443
331.500000	0.037221
330.000000	0.044029
328.500000	0.042148
327.000000	0.047245
325.500000	0.047871
324.000000	0.051769
322.500000	0.048756
321.000000	0.039401
319.500000	0.046549
318.000000	0.000849
316.500000	-0.030298
315.000000	-0.028700
313.500000	-0.028163
312.000000	-0.026700
310.500000	-0.024831
309.000000	-0.017209
307.500000	-0.012975
306.000000	-0.008257
304.500000	-0.002377
303.000000	-0.007425
301.500000	-0.011911
300.000000	-0.011935
