PE UV       SUBTECH     SPECTRUM    ASCII       PEDS        4.00        
   -1
Sample172.Sample.Raw.asc
21/01/27
14:41:20.00
21/01/27
14:41:20.00
Administrator

300.000000
1
Lambda 850
850L1710193
PerkinElmer UV WinLab 6.4.0.973 / 2.02.06 Lambda 800 UV/VIS, Jan 28 2016 16:58:34

0
0
2
0
0
UV/VIS
1
1
1
RBeamAtt,SBeamAtt,60mm sphere
0
0
0
0
Fix
 
0
0.2
0
0
0
 
 
 
0
 
0
319.2
0
Front
100
 
S:100 R:100
 
0
0
0
 
0
 
 
 
0
 
 
0
0
0
0
0
 
 
 
 
0
0


0
0
#HDR
-1
-1
#GR
nm
%T
1.0
0.0
750.000000
-1.500000
301
8
73.155615
-0.028440
#DATA
750.000000	72.900821
748.500000	73.088667
747.000000	73.029100
745.500000	73.078878
744.000000	73.155615
742.500000	73.072756
741.000000	72.980090
739.500000	73.053435
738.000000	73.135963
736.500000	72.917691
735.000000	73.029150
733.500000	72.894144
732.000000	72.873962
730.500000	72.904286
729.000000	72.938387
727.500000	72.962764
726.000000	72.890594
724.500000	73.016651
723.000000	72.881860
721.500000	72.719960
720.000000	72.712056
718.500000	72.765056
717.000000	72.778506
715.500000	72.794360
714.000000	72.826508
712.500000	72.693654
711.000000	72.669186
709.500000	72.630630
708.000000	72.587205
706.500000	72.643002
705.000000	72.702292
703.500000	72.574799
702.000000	72.632904
700.500000	72.566281
699.000000	72.629441
697.500000	72.622127
696.000000	72.466511
694.500000	72.564350
693.000000	72.506554
691.500000	72.476035
690.000000	72.310600
688.500000	72.466136
687.000000	72.315179
685.500000	72.507350
684.000000	72.391721
682.500000	72.367263
681.000000	72.308321
679.500000	72.255433
678.000000	72.281133
676.500000	72.266100
675.000000	72.278123
673.500000	72.219647
672.000000	72.267448
670.500000	72.181429
669.000000	72.143370
667.500000	72.074030
666.000000	72.067334
664.500000	71.937116
663.000000	71.930514
661.500000	71.874196
660.000000	71.894545
658.500000	71.846847
657.000000	71.808861
655.500000	71.746967
654.000000	71.703783
652.500000	71.644808
651.000000	71.657547
649.500000	71.642631
648.000000	71.636018
646.500000	71.517348
645.000000	71.505100
643.500000	71.476871
642.000000	71.405587
640.500000	71.331437
639.000000	71.252710
637.500000	71.235174
636.000000	71.155686
634.500000	71.140411
633.000000	71.023632
631.500000	70.999312
630.000000	71.007630
628.500000	70.916392
627.000000	70.820934
625.500000	70.763012
624.000000	70.726286
622.500000	70.717198
621.000000	70.631765
619.500000	70.550406
618.000000	70.463853
616.500000	70.415553
615.000000	70.354610
613.500000	70.324876
612.000000	70.238729
610.500000	70.150033
609.000000	70.044338
607.500000	69.975773
606.000000	69.910291
604.500000	69.866754
603.000000	69.809842
601.500000	69.767621
600.000000	69.700453
598.500000	69.620446
597.000000	69.551512
595.500000	69.461314
594.000000	69.409152
592.500000	69.372917
591.000000	69.280253
589.500000	69.228830
588.000000	69.166128
586.500000	69.079472
585.000000	69.006679
583.500000	68.934376
582.000000	68.859574
580.500000	68.799208
579.000000	68.752677
577.500000	68.693165
576.000000	68.608587
574.500000	68.477738
573.000000	68.449784
571.500000	68.403088
570.000000	68.305690
568.500000	68.188040
567.000000	68.087082
565.500000	68.018274
564.000000	67.931891
562.500000	67.856473
561.000000	67.907532
559.500000	67.951807
558.000000	67.911839
556.500000	67.851189
555.000000	67.796591
553.500000	67.755088
552.000000	67.683965
550.500000	67.605929
549.000000	67.543419
547.500000	67.473438
546.000000	67.417047
544.500000	67.398275
543.000000	67.335708
541.500000	67.258264
540.000000	67.193315
538.500000	67.121116
537.000000	67.061390
535.500000	67.015769
534.000000	66.961000
532.500000	66.889939
531.000000	66.826919
529.500000	66.791765
528.000000	66.732492
526.500000	66.676231
525.000000	66.595693
523.500000	66.498925
522.000000	66.423389
520.500000	66.336946
519.000000	66.226472
517.500000	66.079950
516.000000	65.905230
514.500000	65.712371
513.000000	65.520471
511.500000	65.287171
510.000000	65.063134
508.500000	64.862016
507.000000	64.639986
505.500000	64.481619
504.000000	64.386409
502.500000	64.341667
501.000000	64.362040
499.500000	64.408263
498.000000	64.481949
496.500000	64.599829
495.000000	64.711898
493.500000	64.864901
492.000000	65.045167
490.500000	65.229255
489.000000	65.317192
487.500000	65.456186
486.000000	65.546756
484.500000	65.665710
483.000000	65.893976
481.500000	66.117574
480.000000	66.121647
478.500000	65.816938
477.000000	65.549912
475.500000	65.378704
474.000000	65.240264
472.500000	65.086123
471.000000	64.898547
469.500000	64.718629
468.000000	64.470767
466.500000	64.225394
465.000000	63.980535
463.500000	63.783658
462.000000	63.636712
460.500000	63.484917
459.000000	63.414585
457.500000	63.404149
456.000000	63.396072
454.500000	63.397019
453.000000	63.449637
451.500000	63.494452
450.000000	63.509079
448.500000	63.565937
447.000000	63.583734
445.500000	63.582296
444.000000	63.813935
442.500000	63.993055
441.000000	63.840385
439.500000	63.742340
438.000000	63.633313
436.500000	63.634634
435.000000	63.509462
433.500000	63.438189
432.000000	63.390874
430.500000	63.383409
429.000000	63.277251
427.500000	63.213807
426.000000	63.119662
424.500000	63.034032
423.000000	62.995215
421.500000	62.920637
420.000000	62.787093
418.500000	62.770949
417.000000	62.673718
415.500000	62.576625
414.000000	62.492890
412.500000	62.439900
411.000000	62.329456
409.500000	62.237214
408.000000	62.178066
406.500000	62.084073
405.000000	61.996664
403.500000	61.863924
402.000000	61.764024
400.500000	61.667222
399.000000	61.598562
397.500000	61.488292
396.000000	61.338082
394.500000	61.261922
393.000000	61.162744
391.500000	61.031449
390.000000	60.925471
388.500000	60.759843
387.000000	60.562643
385.500000	60.382240
384.000000	60.204878
382.500000	59.891657
381.000000	59.709290
379.500000	59.382873
378.000000	59.082983
376.500000	59.600413
375.000000	59.526271
373.500000	58.679176
372.000000	57.677960
370.500000	56.506958
369.000000	55.257575
367.500000	53.800278
366.000000	52.110309
364.500000	49.999726
363.000000	47.508559
361.500000	44.550993
360.000000	41.094799
358.500000	37.116609
357.000000	32.688109
355.500000	27.917289
354.000000	22.920308
352.500000	17.949249
351.000000	13.393838
349.500000	9.377990
348.000000	6.162232
346.500000	3.764000
345.000000	2.169112
343.500000	1.167955
342.000000	0.579553
340.500000	0.261893
339.000000	0.115935
337.500000	0.055058
336.000000	0.044873
334.500000	0.035660
333.000000	0.041079
331.500000	0.035974
330.000000	0.043786
328.500000	0.044753
327.000000	0.046225
325.500000	0.050279
324.000000	0.052458
322.500000	0.047790
321.000000	0.047550
319.500000	0.050731
318.000000	0.003298
316.500000	-0.026511
315.000000	-0.026515
313.500000	-0.028440
312.000000	-0.025823
310.500000	-0.024066
309.000000	-0.016250
307.500000	-0.013935
306.000000	-0.011205
304.500000	-0.004568
303.000000	-0.007902
301.500000	-0.010010
300.000000	-0.009338
