PE UV       SUBTECH     SPECTRUM    ASCII       PEDS        4.00        
   -1
Sample175.Sample.Raw.asc
21/01/27
14:51:33.00
21/01/27
14:51:33.00
Administrator

300.000000
1
Lambda 850
850L1710193
PerkinElmer UV WinLab 6.4.0.973 / 2.02.06 Lambda 800 UV/VIS, Jan 28 2016 16:58:34

0
0
2
0
0
UV/VIS
1
1
1
RBeamAtt,SBeamAtt,60mm sphere
0
0
0
0
Fix
 
0
0.2
0
0
0
 
 
 
0
 
0
319.2
0
Front
100
 
S:100 R:100
 
0
0
0
 
0
 
 
 
0
 
 
0
0
0
0
0
 
 
 
 
0
0


0
0
#HDR
-1
-1
#GR
nm
%T
1.0
0.0
750.000000
-1.500000
301
8
73.153398
-0.031498
#DATA
750.000000	72.988658
748.500000	73.046534
747.000000	73.062125
745.500000	73.101992
744.000000	73.069047
742.500000	73.102510
741.000000	72.948780
739.500000	72.932754
738.000000	73.153398
736.500000	72.968002
735.000000	73.037507
733.500000	72.969782
732.000000	72.950155
730.500000	72.983145
729.000000	72.947970
727.500000	72.929200
726.000000	72.828208
724.500000	72.911045
723.000000	72.800386
721.500000	72.858942
720.000000	72.684822
718.500000	72.823256
717.000000	72.779076
715.500000	72.824195
714.000000	72.725073
712.500000	72.815725
711.000000	72.688192
709.500000	72.653872
708.000000	72.633565
706.500000	72.595400
705.000000	72.739165
703.500000	72.594805
702.000000	72.710339
700.500000	72.575349
699.000000	72.611194
697.500000	72.522246
696.000000	72.561382
694.500000	72.562221
693.000000	72.564539
691.500000	72.442565
690.000000	72.382638
688.500000	72.500965
687.000000	72.466113
685.500000	72.503497
684.000000	72.430835
682.500000	72.343151
681.000000	72.265670
679.500000	72.227548
678.000000	72.314791
676.500000	72.284495
675.000000	72.229316
673.500000	72.242414
672.000000	72.194676
670.500000	72.194092
669.000000	72.221441
667.500000	72.093761
666.000000	72.037152
664.500000	72.015384
663.000000	71.966453
661.500000	71.949849
660.000000	71.940237
658.500000	71.927909
657.000000	71.830919
655.500000	71.750011
654.000000	71.729211
652.500000	71.633208
651.000000	71.714297
649.500000	71.657537
648.000000	71.628108
646.500000	71.510100
645.000000	71.542352
643.500000	71.521153
642.000000	71.398911
640.500000	71.327728
639.000000	71.257492
637.500000	71.214552
636.000000	71.137625
634.500000	71.139586
633.000000	71.090026
631.500000	71.023973
630.000000	71.024302
628.500000	70.942392
627.000000	70.864838
625.500000	70.852078
624.000000	70.776488
622.500000	70.705388
621.000000	70.687761
619.500000	70.590961
618.000000	70.466412
616.500000	70.451559
615.000000	70.378815
613.500000	70.313638
612.000000	70.269547
610.500000	70.183824
609.000000	70.082415
607.500000	70.028473
606.000000	69.991845
604.500000	69.937575
603.000000	69.874639
601.500000	69.822685
600.000000	69.774550
598.500000	69.688406
597.000000	69.565562
595.500000	69.500737
594.000000	69.466937
592.500000	69.425819
591.000000	69.339748
589.500000	69.292146
588.000000	69.235074
586.500000	69.145106
585.000000	69.103749
583.500000	69.014333
582.000000	68.922317
580.500000	68.869144
579.000000	68.800965
577.500000	68.730790
576.000000	68.650757
574.500000	68.566174
573.000000	68.525774
571.500000	68.447833
570.000000	68.335447
568.500000	68.245868
567.000000	68.154314
565.500000	68.070146
564.000000	67.996913
562.500000	67.911729
561.000000	67.958986
559.500000	68.024463
558.000000	67.976262
556.500000	67.921065
555.000000	67.861658
553.500000	67.829686
552.000000	67.767256
550.500000	67.706661
549.000000	67.623715
547.500000	67.555797
546.000000	67.502061
544.500000	67.461384
543.000000	67.411620
541.500000	67.324160
540.000000	67.237868
538.500000	67.174090
537.000000	67.148270
535.500000	67.090837
534.000000	67.046728
532.500000	66.982923
531.000000	66.918920
529.500000	66.891832
528.000000	66.829576
526.500000	66.738498
525.000000	66.651921
523.500000	66.572763
522.000000	66.505437
520.500000	66.414881
519.000000	66.297723
517.500000	66.163704
516.000000	65.976809
514.500000	65.789241
513.000000	65.592379
511.500000	65.355930
510.000000	65.127091
508.500000	64.930114
507.000000	64.734180
505.500000	64.574153
504.000000	64.475075
502.500000	64.422234
501.000000	64.436191
499.500000	64.489340
498.000000	64.555593
496.500000	64.684794
495.000000	64.817476
493.500000	64.973747
492.000000	65.114419
490.500000	65.241237
489.000000	65.376897
487.500000	65.500685
486.000000	65.628971
484.500000	65.703517
483.000000	65.990778
481.500000	66.183274
480.000000	66.202080
478.500000	65.890102
477.000000	65.590137
475.500000	65.479892
474.000000	65.330576
472.500000	65.141225
471.000000	64.984572
469.500000	64.775622
468.000000	64.554902
466.500000	64.311387
465.000000	64.071486
463.500000	63.855516
462.000000	63.680636
460.500000	63.556638
459.000000	63.510312
457.500000	63.497915
456.000000	63.484126
454.500000	63.498062
453.000000	63.528627
451.500000	63.585781
450.000000	63.632927
448.500000	63.617561
447.000000	63.645855
445.500000	63.619886
444.000000	63.879554
442.500000	64.052782
441.000000	63.979640
439.500000	63.846207
438.000000	63.750303
436.500000	63.678407
435.000000	63.616763
433.500000	63.559352
432.000000	63.454583
430.500000	63.463582
429.000000	63.344621
427.500000	63.325784
426.000000	63.185953
424.500000	63.117016
423.000000	63.025421
421.500000	62.963806
420.000000	62.955060
418.500000	62.878073
417.000000	62.803040
415.500000	62.687607
414.000000	62.585189
412.500000	62.541642
411.000000	62.456341
409.500000	62.345518
408.000000	62.255069
406.500000	62.150689
405.000000	62.132985
403.500000	61.996569
402.000000	61.824216
400.500000	61.746502
399.000000	61.736806
397.500000	61.539409
396.000000	61.454819
394.500000	61.326724
393.000000	61.213242
391.500000	61.056362
390.000000	60.980570
388.500000	60.856496
387.000000	60.643350
385.500000	60.467666
384.000000	60.267707
382.500000	60.024547
381.000000	59.745857
379.500000	59.515283
378.000000	59.147800
376.500000	59.623630
375.000000	59.568192
373.500000	58.702099
372.000000	57.708468
370.500000	56.544438
369.000000	55.307125
367.500000	53.904700
366.000000	52.094319
364.500000	49.999268
363.000000	47.493447
361.500000	44.567948
360.000000	41.123598
358.500000	37.046089
357.000000	32.638206
355.500000	27.849756
354.000000	22.846168
352.500000	17.849464
351.000000	13.313509
349.500000	9.301124
348.000000	6.105703
346.500000	3.733739
345.000000	2.155136
343.500000	1.145637
342.000000	0.572047
340.500000	0.258836
339.000000	0.118159
337.500000	0.059507
336.000000	0.041343
334.500000	0.041325
333.000000	0.040521
331.500000	0.045363
330.000000	0.045366
328.500000	0.040101
327.000000	0.039608
325.500000	0.047579
324.000000	0.043684
322.500000	0.046859
321.000000	0.045686
319.500000	0.042042
318.000000	0.006124
316.500000	-0.019554
315.000000	-0.031498
313.500000	-0.030417
312.000000	-0.024409
310.500000	-0.021613
309.000000	-0.017006
307.500000	-0.015642
306.000000	-0.009306
304.500000	-0.006472
303.000000	-0.010282
301.500000	-0.009533
300.000000	-0.010672
