PE UV       SUBTECH     SPECTRUM    ASCII       PEDS        4.00        
   -1
Sample102.Sample.Raw.asc
20/12/17
14:53:52.00
20/12/17
14:53:52.00
Administrator

300.000000
1
Lambda 850
850L1710193
PerkinElmer UV WinLab 6.4.0.973 / 2.02.06 Lambda 800 UV/VIS, Jan 28 2016 16:58:34

0
0
2
0
0
UV/VIS
1
1
1
RBeamAtt,SBeamAtt,60mm sphere
0
0
0
0
Fix
 
0
0.2
0
0
0
 
 
 
0
 
0
319.2
0
Front
100
 
S:100 R:100
 
0
0
0
 
0
 
 
 
0
 
 
0
0
0
0
0
 
 
 
 
0
0


0
0
#HDR
-1
-1
#GR
nm
%T
1.0
0.0
750.000000
-1.500000
301
8
74.444396
-0.031362
#DATA
750.000000	74.105758
748.500000	74.411780
747.000000	74.209703
745.500000	74.364656
744.000000	74.444396
742.500000	74.360011
741.000000	74.295588
739.500000	74.267230
738.000000	74.273675
736.500000	74.197391
735.000000	74.418042
733.500000	74.179767
732.000000	74.363502
730.500000	74.294237
729.000000	74.247058
727.500000	74.245542
726.000000	74.155550
724.500000	74.255003
723.000000	74.201007
721.500000	74.206426
720.000000	74.131309
718.500000	74.157677
717.000000	74.110617
715.500000	74.053626
714.000000	74.068569
712.500000	74.122754
711.000000	74.134486
709.500000	74.123088
708.000000	74.113262
706.500000	74.121067
705.000000	74.096559
703.500000	74.226740
702.000000	74.066972
700.500000	74.116401
699.000000	73.991677
697.500000	74.044254
696.000000	74.000904
694.500000	73.964713
693.000000	73.911346
691.500000	73.881731
690.000000	73.778465
688.500000	73.982610
687.000000	73.966712
685.500000	74.014183
684.000000	74.020175
682.500000	73.980189
681.000000	73.919582
679.500000	73.871764
678.000000	73.932410
676.500000	73.914932
675.000000	73.938242
673.500000	73.823505
672.000000	73.856644
670.500000	73.814411
669.000000	73.793322
667.500000	73.824283
666.000000	73.839326
664.500000	73.782146
663.000000	73.782226
661.500000	73.767479
660.000000	73.702321
658.500000	73.688546
657.000000	73.706858
655.500000	73.734588
654.000000	73.699699
652.500000	73.729505
651.000000	73.687263
649.500000	73.666247
648.000000	73.640544
646.500000	73.637531
645.000000	73.640261
643.500000	73.585910
642.000000	73.588177
640.500000	73.600981
639.000000	73.558908
637.500000	73.550165
636.000000	73.536843
634.500000	73.554164
633.000000	73.538613
631.500000	73.510941
630.000000	73.503240
628.500000	73.462251
627.000000	73.437871
625.500000	73.425196
624.000000	73.457361
622.500000	73.443069
621.000000	73.419699
619.500000	73.380775
618.000000	73.361753
616.500000	73.342014
615.000000	73.300100
613.500000	73.319286
612.000000	73.268438
610.500000	73.238836
609.000000	73.245788
607.500000	73.224585
606.000000	73.184318
604.500000	73.183533
603.000000	73.194762
601.500000	73.177793
600.000000	73.179806
598.500000	73.119114
597.000000	73.089321
595.500000	73.069609
594.000000	73.075295
592.500000	73.041529
591.000000	73.029215
589.500000	73.033416
588.000000	73.003026
586.500000	72.940807
585.000000	72.900081
583.500000	72.914155
582.000000	72.915288
580.500000	72.887584
579.000000	72.868081
577.500000	72.799556
576.000000	72.777241
574.500000	72.778013
573.000000	72.716460
571.500000	72.669180
570.000000	72.701990
568.500000	72.677758
567.000000	72.598735
565.500000	72.561195
564.000000	72.510128
562.500000	72.513474
561.000000	72.695787
559.500000	72.784097
558.000000	72.743817
556.500000	72.728752
555.000000	72.712981
553.500000	72.681115
552.000000	72.657043
550.500000	72.630875
549.000000	72.578498
547.500000	72.597915
546.000000	72.608955
544.500000	72.578751
543.000000	72.548002
541.500000	72.505525
540.000000	72.483223
538.500000	72.477006
537.000000	72.480679
535.500000	72.486556
534.000000	72.473121
532.500000	72.426917
531.000000	72.408270
529.500000	72.401504
528.000000	72.367545
526.500000	72.331121
525.000000	72.295160
523.500000	72.237375
522.000000	72.168138
520.500000	72.097952
519.000000	71.987009
517.500000	71.856411
516.000000	71.695560
514.500000	71.523887
513.000000	71.302934
511.500000	71.076560
510.000000	70.837152
508.500000	70.603846
507.000000	70.371428
505.500000	70.201676
504.000000	70.078187
502.500000	70.022608
501.000000	70.038655
499.500000	70.077665
498.000000	70.129509
496.500000	70.240000
495.000000	70.386508
493.500000	70.503219
492.000000	70.639143
490.500000	70.763124
489.000000	70.941554
487.500000	71.076660
486.000000	71.215262
484.500000	71.412265
483.000000	71.668119
481.500000	71.967110
480.000000	72.027176
478.500000	71.782512
477.000000	71.520750
475.500000	71.362897
474.000000	71.203013
472.500000	71.083601
471.000000	70.900260
469.500000	70.666354
468.000000	70.436215
466.500000	70.192086
465.000000	69.912672
463.500000	69.664331
462.000000	69.511182
460.500000	69.375953
459.000000	69.217959
457.500000	69.181986
456.000000	69.196602
454.500000	69.178495
453.000000	69.266400
451.500000	69.233322
450.000000	69.272311
448.500000	69.317984
447.000000	69.295030
445.500000	69.327232
444.000000	69.598392
442.500000	69.828946
441.000000	69.600049
439.500000	69.558774
438.000000	69.432024
436.500000	69.356446
435.000000	69.322768
433.500000	69.274440
432.000000	69.190457
430.500000	69.135446
429.000000	68.985237
427.500000	68.999171
426.000000	68.917630
424.500000	68.834488
423.000000	68.720274
421.500000	68.675168
420.000000	68.605762
418.500000	68.496959
417.000000	68.481798
415.500000	68.388596
414.000000	68.260278
412.500000	68.191080
411.000000	68.087311
409.500000	68.037596
408.000000	67.973964
406.500000	67.872477
405.000000	67.709962
403.500000	67.604752
402.000000	67.455402
400.500000	67.355234
399.000000	67.302301
397.500000	67.156028
396.000000	67.077740
394.500000	66.910782
393.000000	66.741481
391.500000	66.576898
390.000000	66.370882
388.500000	66.285480
387.000000	65.951440
385.500000	65.748369
384.000000	65.502956
382.500000	65.198194
381.000000	64.932279
379.500000	64.598825
378.000000	64.172439
376.500000	64.671301
375.000000	64.605208
373.500000	63.434492
372.000000	62.366209
370.500000	60.892161
369.000000	59.555617
367.500000	57.746573
366.000000	55.638390
364.500000	53.102977
363.000000	50.202551
361.500000	46.737066
360.000000	42.836906
358.500000	38.365910
357.000000	33.422289
355.500000	28.104868
354.000000	22.764730
352.500000	17.580641
351.000000	12.754654
349.500000	8.809250
348.000000	5.655618
346.500000	3.413767
345.000000	1.934817
343.500000	1.024540
342.000000	0.492225
340.500000	0.219669
339.000000	0.100655
337.500000	0.050169
336.000000	0.044000
334.500000	0.054151
333.000000	0.048631
331.500000	0.057426
330.000000	0.047479
328.500000	0.057852
327.000000	0.050153
325.500000	0.061975
324.000000	0.057316
322.500000	0.065969
321.000000	0.075619
319.500000	0.069511
318.000000	-0.000940
316.500000	-0.024204
315.000000	-0.021394
313.500000	-0.031362
312.000000	-0.026230
310.500000	-0.024268
309.000000	-0.021502
307.500000	-0.008511
306.000000	-0.005872
304.500000	-0.002275
303.000000	-0.007782
301.500000	-0.018424
300.000000	-0.012081
