PE UV       SUBTECH     SPECTRUM    ASCII       PEDS        4.00        
   -1
Sample101.Sample.Raw.asc
20/12/17
14:50:33.00
20/12/17
14:50:33.00
Administrator

300.000000
1
Lambda 850
850L1710193
PerkinElmer UV WinLab 6.4.0.973 / 2.02.06 Lambda 800 UV/VIS, Jan 28 2016 16:58:34

0
0
2
0
0
UV/VIS
1
1
1
RBeamAtt,SBeamAtt,60mm sphere
0
0
0
0
Fix
 
0
0.2
0
0
0
 
 
 
0
 
0
319.2
0
Front
100
 
S:100 R:100
 
0
0
0
 
0
 
 
 
0
 
 
0
0
0
0
0
 
 
 
 
0
0


0
0
#HDR
-1
-1
#GR
nm
%T
1.0
0.0
750.000000
-1.500000
301
8
75.694173
-0.024115
#DATA
750.000000	75.381172
748.500000	75.694173
747.000000	75.656681
745.500000	75.499348
744.000000	75.619293
742.500000	75.663266
741.000000	75.654835
739.500000	75.417330
738.000000	75.468920
736.500000	75.377267
735.000000	75.491797
733.500000	75.557655
732.000000	75.665428
730.500000	75.496771
729.000000	75.306781
727.500000	75.429109
726.000000	75.560434
724.500000	75.533776
723.000000	75.482953
721.500000	75.418926
720.000000	75.344259
718.500000	75.360769
717.000000	75.373040
715.500000	75.318655
714.000000	75.323183
712.500000	75.342665
711.000000	75.427180
709.500000	75.366051
708.000000	75.336318
706.500000	75.447774
705.000000	75.371962
703.500000	75.482507
702.000000	75.341336
700.500000	75.355357
699.000000	75.148588
697.500000	75.218226
696.000000	75.250049
694.500000	75.203319
693.000000	75.211655
691.500000	75.117888
690.000000	74.980279
688.500000	75.193502
687.000000	75.264483
685.500000	75.290368
684.000000	75.219763
682.500000	75.176976
681.000000	75.076784
679.500000	75.105990
678.000000	75.095892
676.500000	75.091355
675.000000	75.131341
673.500000	74.996824
672.000000	75.048021
670.500000	75.101814
669.000000	75.024437
667.500000	75.053761
666.000000	75.089939
664.500000	75.030646
663.000000	75.043381
661.500000	75.036433
660.000000	74.982655
658.500000	74.946990
657.000000	74.973502
655.500000	75.002178
654.000000	74.974340
652.500000	74.935765
651.000000	74.931175
649.500000	74.999321
648.000000	74.861783
646.500000	74.833911
645.000000	74.867184
643.500000	74.847367
642.000000	74.854798
640.500000	74.837000
639.000000	74.817922
637.500000	74.824795
636.000000	74.804615
634.500000	74.776266
633.000000	74.743394
631.500000	74.743632
630.000000	74.718969
628.500000	74.709046
627.000000	74.689156
625.500000	74.706137
624.000000	74.721099
622.500000	74.645654
621.000000	74.628546
619.500000	74.638789
618.000000	74.583861
616.500000	74.559780
615.000000	74.586027
613.500000	74.527566
612.000000	74.471088
610.500000	74.469567
609.000000	74.494146
607.500000	74.553769
606.000000	74.504814
604.500000	74.481669
603.000000	74.465625
601.500000	74.432857
600.000000	74.446211
598.500000	74.438126
597.000000	74.410201
595.500000	74.365048
594.000000	74.360316
592.500000	74.348112
591.000000	74.356524
589.500000	74.344981
588.000000	74.294314
586.500000	74.276018
585.000000	74.267852
583.500000	74.261131
582.000000	74.226739
580.500000	74.207553
579.000000	74.238652
577.500000	74.188324
576.000000	74.170606
574.500000	74.151103
573.000000	74.089916
571.500000	74.072501
570.000000	74.067279
568.500000	74.072415
567.000000	74.038051
565.500000	73.991934
564.000000	73.939438
562.500000	73.930353
561.000000	74.104115
559.500000	74.216378
558.000000	74.203172
556.500000	74.203487
555.000000	74.152617
553.500000	74.125316
552.000000	74.161476
550.500000	74.187423
549.000000	74.169294
547.500000	74.155239
546.000000	74.170867
544.500000	74.172606
543.000000	74.142870
541.500000	74.133381
540.000000	74.126432
538.500000	74.116292
537.000000	74.158287
535.500000	74.178790
534.000000	74.154832
532.500000	74.154423
531.000000	74.157051
529.500000	74.149572
528.000000	74.138678
526.500000	74.146019
525.000000	74.139226
523.500000	74.119188
522.000000	74.072728
520.500000	74.004401
519.000000	73.907592
517.500000	73.782401
516.000000	73.630977
514.500000	73.460591
513.000000	73.235731
511.500000	72.977805
510.000000	72.738840
508.500000	72.493196
507.000000	72.225515
505.500000	72.015933
504.000000	71.905575
502.500000	71.809185
501.000000	71.753914
499.500000	71.720447
498.000000	71.730771
496.500000	71.813222
495.000000	71.905111
493.500000	72.004688
492.000000	72.103537
490.500000	72.248977
489.000000	72.429294
487.500000	72.568961
486.000000	72.689452
484.500000	72.898557
483.000000	73.237540
481.500000	73.679002
480.000000	73.817124
478.500000	73.572493
477.000000	73.383770
475.500000	73.297475
474.000000	73.159752
472.500000	73.066101
471.000000	72.953542
469.500000	72.748533
468.000000	72.521256
466.500000	72.270231
465.000000	71.982153
463.500000	71.735246
462.000000	71.521741
460.500000	71.368351
459.000000	71.237136
457.500000	71.146750
456.000000	71.119400
454.500000	71.061179
453.000000	71.117092
451.500000	71.082381
450.000000	71.096937
448.500000	71.126263
447.000000	71.096608
445.500000	71.144816
444.000000	71.382814
442.500000	71.571391
441.000000	71.413011
439.500000	71.386070
438.000000	71.288184
436.500000	71.217075
435.000000	71.248419
433.500000	71.148068
432.000000	71.053681
430.500000	71.057604
429.000000	70.989737
427.500000	70.878790
426.000000	70.845642
424.500000	70.813578
423.000000	70.738206
421.500000	70.692573
420.000000	70.594897
418.500000	70.462991
417.000000	70.500329
415.500000	70.359567
414.000000	70.348138
412.500000	70.221900
411.000000	70.236031
409.500000	70.135805
408.000000	70.099502
406.500000	70.021687
405.000000	69.842121
403.500000	69.781794
402.000000	69.755287
400.500000	69.627403
399.000000	69.569675
397.500000	69.435245
396.000000	69.368570
394.500000	69.281389
393.000000	69.137750
391.500000	69.095515
390.000000	68.917391
388.500000	68.777311
387.000000	68.590162
385.500000	68.419041
384.000000	68.311796
382.500000	68.106523
381.000000	67.837042
379.500000	67.635039
378.000000	67.469061
376.500000	68.130606
375.000000	68.351125
373.500000	67.402097
372.000000	66.513229
370.500000	65.439840
369.000000	64.389131
367.500000	62.994910
366.000000	61.478192
364.500000	59.609892
363.000000	57.411021
361.500000	54.661973
360.000000	51.665121
358.500000	48.011086
357.000000	43.899860
355.500000	39.101246
354.000000	33.991943
352.500000	28.619183
351.000000	23.083665
349.500000	17.785325
348.000000	12.968670
346.500000	8.773201
345.000000	5.460805
343.500000	3.044280
342.000000	1.507703
340.500000	0.636015
339.000000	0.236775
337.500000	0.090712
336.000000	0.038257
334.500000	0.034805
333.000000	0.046130
331.500000	0.052509
330.000000	0.046830
328.500000	0.051074
327.000000	0.041329
325.500000	0.047924
324.000000	0.060759
322.500000	0.048079
321.000000	0.053427
319.500000	0.043421
318.000000	0.000282
316.500000	-0.018669
315.000000	-0.024115
313.500000	-0.021597
312.000000	-0.013914
310.500000	-0.015426
309.000000	-0.014712
307.500000	-0.014280
306.000000	-0.003883
304.500000	0.001801
303.000000	-0.002278
301.500000	-0.004179
300.000000	-0.005612
