PE UV       SUBTECH     SPECTRUM    ASCII       PEDS        4.00        
   -1
Sample241.Sample.Raw.asc
21/02/10
10:39:24.00
21/02/10
10:39:24.00
Administrator

300.000000
1
Lambda 850
850L1710193
PerkinElmer UV WinLab 6.4.0.973 / 2.02.06 Lambda 800 UV/VIS, Jan 28 2016 16:58:34

0
0
2
0
0
UV/VIS
1
1
1
RBeamAtt,SBeamAtt,60mm sphere
0
0
0
0
Fix
 
0
0.2
0
0
0
 
 
 
0
 
0
319.2
0
Front
100
 
S:100 R:100
 
0
0
0
 
0
 
 
 
0
 
 
0
0
0
0
0
 
 
 
 
0
0


0
0
#HDR
-1
-1
#GR
nm
%T
1.0
0.0
750.000000
-1.500000
301
8
72.330400
-0.028003
#DATA
750.000000	72.052264
748.500000	72.330400
747.000000	72.328370
745.500000	72.201849
744.000000	72.297053
742.500000	72.075699
741.000000	71.985775
739.500000	72.164246
738.000000	72.109926
736.500000	71.891153
735.000000	72.143003
733.500000	71.941729
732.000000	71.891112
730.500000	71.941525
729.000000	71.945581
727.500000	71.962726
726.000000	71.906094
724.500000	71.628707
723.000000	71.575635
721.500000	71.556445
720.000000	71.709743
718.500000	71.672470
717.000000	71.673024
715.500000	71.611701
714.000000	71.574306
712.500000	71.540987
711.000000	71.480825
709.500000	71.465410
708.000000	71.386510
706.500000	71.455762
705.000000	71.422037
703.500000	71.401940
702.000000	71.267919
700.500000	71.385856
699.000000	71.286503
697.500000	71.242095
696.000000	71.219128
694.500000	71.290548
693.000000	71.183292
691.500000	71.059047
690.000000	70.866022
688.500000	71.067695
687.000000	71.034307
685.500000	70.984338
684.000000	71.011974
682.500000	70.968705
681.000000	70.875056
679.500000	70.927922
678.000000	70.777833
676.500000	70.688317
675.000000	70.683512
673.500000	70.737415
672.000000	70.637351
670.500000	70.603692
669.000000	70.416310
667.500000	70.377569
666.000000	70.327470
664.500000	70.435456
663.000000	70.281724
661.500000	70.154270
660.000000	70.159038
658.500000	70.111833
657.000000	70.018126
655.500000	69.936744
654.000000	69.833039
652.500000	69.759862
651.000000	69.641707
649.500000	69.556333
648.000000	69.468115
646.500000	69.403581
645.000000	69.348523
643.500000	69.283592
642.000000	69.231011
640.500000	69.090939
639.000000	68.986701
637.500000	68.925926
636.000000	68.802943
634.500000	68.669897
633.000000	68.621147
631.500000	68.505967
630.000000	68.389561
628.500000	68.342148
627.000000	68.219373
625.500000	68.156269
624.000000	68.055574
622.500000	67.921829
621.000000	67.849928
619.500000	67.739899
618.000000	67.581037
616.500000	67.497403
615.000000	67.389905
613.500000	67.272142
612.000000	67.168334
610.500000	67.092735
609.000000	66.963081
607.500000	66.852250
606.000000	66.764423
604.500000	66.629344
603.000000	66.515624
601.500000	66.412647
600.000000	66.285451
598.500000	66.172579
597.000000	66.118075
595.500000	66.001302
594.000000	65.846684
592.500000	65.744580
591.000000	65.652113
589.500000	65.526068
588.000000	65.446047
586.500000	65.309851
585.000000	65.144951
583.500000	65.087289
582.000000	65.047932
580.500000	64.944889
579.000000	64.837733
577.500000	64.725814
576.000000	64.629310
574.500000	64.537477
573.000000	64.412960
571.500000	64.277032
570.000000	64.173198
568.500000	64.098030
567.000000	64.016660
565.500000	63.889202
564.000000	63.772356
562.500000	63.731136
561.000000	63.782646
559.500000	63.792217
558.000000	63.709879
556.500000	63.634751
555.000000	63.568795
553.500000	63.487038
552.000000	63.392587
550.500000	63.343096
549.000000	63.271457
547.500000	63.180303
546.000000	63.149213
544.500000	63.113763
543.000000	63.063934
541.500000	63.035193
540.000000	62.989053
538.500000	62.935726
537.000000	62.908668
535.500000	62.871882
534.000000	62.823480
532.500000	62.792067
531.000000	62.762459
529.500000	62.715291
528.000000	62.695845
526.500000	62.657949
525.000000	62.578990
523.500000	62.514065
522.000000	62.441823
520.500000	62.347666
519.000000	62.218504
517.500000	62.088523
516.000000	61.931911
514.500000	61.731239
513.000000	61.485698
511.500000	61.211177
510.000000	60.972787
508.500000	60.686914
507.000000	60.375103
505.500000	60.119945
504.000000	59.890762
502.500000	59.688085
501.000000	59.539426
499.500000	59.388301
498.000000	59.266254
496.500000	59.200167
495.000000	59.121512
493.500000	59.099905
492.000000	59.136552
490.500000	59.171299
489.000000	59.195150
487.500000	59.272049
486.000000	59.432238
484.500000	59.644977
483.000000	59.998425
481.500000	60.420755
480.000000	60.610337
478.500000	60.487245
477.000000	60.321058
475.500000	60.256636
474.000000	60.170176
472.500000	60.064623
471.000000	59.938975
469.500000	59.781220
468.000000	59.581987
466.500000	59.345525
465.000000	59.070319
463.500000	58.793759
462.000000	58.565103
460.500000	58.387353
459.000000	58.256248
457.500000	58.071665
456.000000	57.967940
454.500000	57.816181
453.000000	57.715845
451.500000	57.628408
450.000000	57.575651
448.500000	57.474339
447.000000	57.372319
445.500000	57.407258
444.000000	57.527752
442.500000	57.576651
441.000000	57.513662
439.500000	57.388766
438.000000	57.323030
436.500000	57.223286
435.000000	57.161077
433.500000	57.027228
432.000000	56.928337
430.500000	56.886647
429.000000	56.785747
427.500000	56.733953
426.000000	56.659731
424.500000	56.651765
423.000000	56.484362
421.500000	56.390522
420.000000	56.314043
418.500000	56.238781
417.000000	56.154379
415.500000	56.064264
414.000000	55.957811
412.500000	55.932786
411.000000	55.771717
409.500000	55.716625
408.000000	55.682959
406.500000	55.587705
405.000000	55.475329
403.500000	55.400944
402.000000	55.328762
400.500000	55.255416
399.000000	55.123048
397.500000	55.036423
396.000000	55.010885
394.500000	54.862320
393.000000	54.818401
391.500000	54.713213
390.000000	54.701162
388.500000	54.572593
387.000000	54.405823
385.500000	54.332803
384.000000	54.162219
382.500000	54.071327
381.000000	53.924916
379.500000	53.666833
378.000000	53.673657
376.500000	54.278098
375.000000	54.391679
373.500000	53.825223
372.000000	53.166600
370.500000	52.377886
369.000000	51.697385
367.500000	50.732672
366.000000	49.622484
364.500000	48.266966
363.000000	46.796267
361.500000	44.902115
360.000000	42.689512
358.500000	39.989331
357.000000	36.848307
355.500000	33.356986
354.000000	29.406611
352.500000	25.130804
351.000000	20.716739
349.500000	16.304935
348.000000	12.193889
346.500000	8.555603
345.000000	5.509358
343.500000	3.219300
342.000000	1.671097
340.500000	0.759615
339.000000	0.293536
337.500000	0.101799
336.000000	0.045773
334.500000	0.039943
333.000000	0.035135
331.500000	0.035384
330.000000	0.036390
328.500000	0.042006
327.000000	0.045747
325.500000	0.049125
324.000000	0.048751
322.500000	0.045438
321.000000	0.041369
319.500000	0.044737
318.000000	0.004441
316.500000	-0.024340
315.000000	-0.027979
313.500000	-0.028003
312.000000	-0.024657
310.500000	-0.025367
309.000000	-0.021600
307.500000	-0.017469
306.000000	-0.010080
304.500000	-0.002859
303.000000	-0.004957
301.500000	-0.008785
300.000000	-0.012131
