PE UV       SUBTECH     SPECTRUM    ASCII       PEDS        4.00        
   -1
Sample108.Sample.Raw.asc
20/12/17
15:18:43.00
20/12/17
15:18:43.00
Administrator

300.000000
1
Lambda 850
850L1710193
PerkinElmer UV WinLab 6.4.0.973 / 2.02.06 Lambda 800 UV/VIS, Jan 28 2016 16:58:34

0
0
2
0
0
UV/VIS
1
1
1
RBeamAtt,SBeamAtt,60mm sphere
0
0
0
0
Fix
 
0
0.2
0
0
0
 
 
 
0
 
0
319.2
0
Front
100
 
S:100 R:100
 
0
0
0
 
0
 
 
 
0
 
 
0
0
0
0
0
 
 
 
 
0
0


0
0
#HDR
-1
-1
#GR
nm
%T
1.0
0.0
750.000000
-1.500000
301
8
73.848505
-0.025241
#DATA
750.000000	73.494323
748.500000	73.750996
747.000000	73.811915
745.500000	73.848505
744.000000	73.788617
742.500000	73.832593
741.000000	73.753149
739.500000	73.638207
738.000000	73.747399
736.500000	73.639880
735.000000	73.639402
733.500000	73.817630
732.000000	73.846087
730.500000	73.750988
729.000000	73.702011
727.500000	73.605695
726.000000	73.562880
724.500000	73.668777
723.000000	73.693264
721.500000	73.753130
720.000000	73.636131
718.500000	73.588484
717.000000	73.642198
715.500000	73.619217
714.000000	73.538017
712.500000	73.598018
711.000000	73.602119
709.500000	73.473117
708.000000	73.492078
706.500000	73.560540
705.000000	73.552566
703.500000	73.490590
702.000000	73.489355
700.500000	73.456282
699.000000	73.359575
697.500000	73.419257
696.000000	73.427369
694.500000	73.368224
693.000000	73.384086
691.500000	73.313176
690.000000	73.228066
688.500000	73.427001
687.000000	73.318031
685.500000	73.378138
684.000000	73.374029
682.500000	73.374959
681.000000	73.330344
679.500000	73.205493
678.000000	73.243040
676.500000	73.312295
675.000000	73.314793
673.500000	73.236476
672.000000	73.250294
670.500000	73.245368
669.000000	73.167638
667.500000	73.183821
666.000000	73.214717
664.500000	73.120644
663.000000	73.153742
661.500000	73.173050
660.000000	73.079231
658.500000	73.035837
657.000000	73.053816
655.500000	73.045932
654.000000	73.068664
652.500000	73.057187
651.000000	73.030390
649.500000	73.013485
648.000000	72.958606
646.500000	72.921283
645.000000	73.010098
643.500000	72.945351
642.000000	72.894959
640.500000	72.895731
639.000000	72.856356
637.500000	72.844241
636.000000	72.847015
634.500000	72.836898
633.000000	72.785737
631.500000	72.795804
630.000000	72.803113
628.500000	72.804699
627.000000	72.764102
625.500000	72.722133
624.000000	72.711812
622.500000	72.681542
621.000000	72.638667
619.500000	72.652993
618.000000	72.605908
616.500000	72.587834
615.000000	72.602552
613.500000	72.581997
612.000000	72.530819
610.500000	72.518320
609.000000	72.506027
607.500000	72.486360
606.000000	72.407348
604.500000	72.407027
603.000000	72.424189
601.500000	72.385703
600.000000	72.360824
598.500000	72.342268
597.000000	72.312439
595.500000	72.294260
594.000000	72.271177
592.500000	72.257200
591.000000	72.240654
589.500000	72.223593
588.000000	72.183405
586.500000	72.120636
585.000000	72.100984
583.500000	72.088573
582.000000	72.099231
580.500000	72.052495
579.000000	72.003687
577.500000	71.997842
576.000000	72.001518
574.500000	71.986507
573.000000	71.908322
571.500000	71.872302
570.000000	71.844158
568.500000	71.817121
567.000000	71.768551
565.500000	71.721044
564.000000	71.689716
562.500000	71.688809
561.000000	71.817995
559.500000	71.911484
558.000000	71.915385
556.500000	71.905215
555.000000	71.871460
553.500000	71.834455
552.000000	71.817404
550.500000	71.799186
549.000000	71.761968
547.500000	71.740916
546.000000	71.744978
544.500000	71.722129
543.000000	71.665925
541.500000	71.635399
540.000000	71.598576
538.500000	71.580592
537.000000	71.582830
535.500000	71.579278
534.000000	71.582167
532.500000	71.548970
531.000000	71.520139
529.500000	71.496807
528.000000	71.463201
526.500000	71.444267
525.000000	71.401692
523.500000	71.367855
522.000000	71.305200
520.500000	71.220474
519.000000	71.111216
517.500000	70.973865
516.000000	70.824289
514.500000	70.630583
513.000000	70.410340
511.500000	70.175036
510.000000	69.931516
508.500000	69.737446
507.000000	69.504938
505.500000	69.321336
504.000000	69.204994
502.500000	69.177600
501.000000	69.200444
499.500000	69.203596
498.000000	69.275564
496.500000	69.389310
495.000000	69.509933
493.500000	69.656675
492.000000	69.770642
490.500000	69.930041
489.000000	70.108103
487.500000	70.216134
486.000000	70.296328
484.500000	70.517190
483.000000	70.819820
481.500000	71.082896
480.000000	71.128481
478.500000	70.863588
477.000000	70.624182
475.500000	70.449295
474.000000	70.303055
472.500000	70.158752
471.000000	69.986838
469.500000	69.777615
468.000000	69.528674
466.500000	69.281580
465.000000	68.975194
463.500000	68.734808
462.000000	68.560514
460.500000	68.432676
459.000000	68.316553
457.500000	68.257400
456.000000	68.297592
454.500000	68.286026
453.000000	68.356182
451.500000	68.358316
450.000000	68.352529
448.500000	68.396012
447.000000	68.398378
445.500000	68.426009
444.000000	68.714141
442.500000	68.855576
441.000000	68.689330
439.500000	68.643404
438.000000	68.550178
436.500000	68.436339
435.000000	68.355150
433.500000	68.318537
432.000000	68.257457
430.500000	68.175251
429.000000	68.111826
427.500000	67.988669
426.000000	67.985458
424.500000	67.903975
423.000000	67.769293
421.500000	67.717389
420.000000	67.554701
418.500000	67.448161
417.000000	67.444758
415.500000	67.332795
414.000000	67.250168
412.500000	67.080474
411.000000	66.986279
409.500000	66.880409
408.000000	66.813409
406.500000	66.672435
405.000000	66.512446
403.500000	66.352403
402.000000	66.270170
400.500000	66.092027
399.000000	66.006458
397.500000	65.818158
396.000000	65.698519
394.500000	65.489637
393.000000	65.321515
391.500000	65.146786
390.000000	64.881993
388.500000	64.720908
387.000000	64.342270
385.500000	64.096381
384.000000	63.819066
382.500000	63.548697
381.000000	63.181968
379.500000	62.788649
378.000000	62.345934
376.500000	62.709151
375.000000	62.477510
373.500000	61.457202
372.000000	60.282038
370.500000	58.884130
369.000000	57.341267
367.500000	55.599053
366.000000	53.512200
364.500000	51.134098
363.000000	48.240315
361.500000	45.063460
360.000000	41.304258
358.500000	37.116143
357.000000	32.496694
355.500000	27.471923
354.000000	22.381414
352.500000	17.436932
351.000000	12.874815
349.500000	8.962012
348.000000	5.907570
346.500000	3.608260
345.000000	2.078564
343.500000	1.121698
342.000000	0.563611
340.500000	0.256604
339.000000	0.123434
337.500000	0.070070
336.000000	0.046038
334.500000	0.045913
333.000000	0.036682
331.500000	0.046479
330.000000	0.043770
328.500000	0.037609
327.000000	0.044952
325.500000	0.035361
324.000000	0.057409
322.500000	0.036712
321.000000	0.041959
319.500000	0.031587
318.000000	0.001034
316.500000	-0.023828
315.000000	-0.025241
313.500000	-0.024789
312.000000	-0.025196
310.500000	-0.025020
309.000000	-0.020182
307.500000	-0.013523
306.000000	-0.002557
304.500000	-0.004644
303.000000	-0.013856
301.500000	-0.011111
300.000000	-0.007990
