PE UV       SUBTECH     SPECTRUM    ASCII       PEDS        4.00        
   -1
Sample109.Sample.Raw.asc
20/12/17
15:21:50.00
20/12/17
15:21:50.00
Administrator

300.000000
1
Lambda 850
850L1710193
PerkinElmer UV WinLab 6.4.0.973 / 2.02.06 Lambda 800 UV/VIS, Jan 28 2016 16:58:34

0
0
2
0
0
UV/VIS
1
1
1
RBeamAtt,SBeamAtt,60mm sphere
0
0
0
0
Fix
 
0
0.2
0
0
0
 
 
 
0
 
0
319.2
0
Front
100
 
S:100 R:100
 
0
0
0
 
0
 
 
 
0
 
 
0
0
0
0
0
 
 
 
 
0
0


0
0
#HDR
-1
-1
#GR
nm
%T
1.0
0.0
750.000000
-1.500000
301
8
75.169744
-0.024507
#DATA
750.000000	74.883349
748.500000	75.157760
747.000000	74.977878
745.500000	75.169744
744.000000	75.161765
742.500000	74.984731
741.000000	75.031329
739.500000	74.893346
738.000000	74.930612
736.500000	74.838816
735.000000	75.064334
733.500000	74.937957
732.000000	75.054821
730.500000	74.923804
729.000000	74.871635
727.500000	74.911708
726.000000	74.859572
724.500000	74.969869
723.000000	74.940694
721.500000	74.933065
720.000000	74.847134
718.500000	74.778505
717.000000	74.887549
715.500000	74.795657
714.000000	74.805879
712.500000	74.806132
711.000000	74.855816
709.500000	74.691986
708.000000	74.864157
706.500000	74.847045
705.000000	74.727453
703.500000	74.851194
702.000000	74.727164
700.500000	74.668390
699.000000	74.619866
697.500000	74.731555
696.000000	74.641510
694.500000	74.604299
693.000000	74.573341
691.500000	74.573420
690.000000	74.388396
688.500000	74.563730
687.000000	74.593143
685.500000	74.598480
684.000000	74.593108
682.500000	74.532281
681.000000	74.470856
679.500000	74.444222
678.000000	74.532383
676.500000	74.494619
675.000000	74.483043
673.500000	74.402256
672.000000	74.434289
670.500000	74.437684
669.000000	74.419499
667.500000	74.369323
666.000000	74.380194
664.500000	74.365780
663.000000	74.321442
661.500000	74.344739
660.000000	74.258906
658.500000	74.244515
657.000000	74.317667
655.500000	74.297989
654.000000	74.212645
652.500000	74.251360
651.000000	74.244773
649.500000	74.219412
648.000000	74.193493
646.500000	74.149079
645.000000	74.157622
643.500000	74.134584
642.000000	74.129157
640.500000	74.119981
639.000000	74.061049
637.500000	74.037710
636.000000	74.026613
634.500000	73.997389
633.000000	73.964827
631.500000	73.948276
630.000000	73.988032
628.500000	73.984502
627.000000	73.946906
625.500000	73.926925
624.000000	73.947111
622.500000	73.899458
621.000000	73.869194
619.500000	73.860301
618.000000	73.791345
616.500000	73.764557
615.000000	73.800750
613.500000	73.750938
612.000000	73.709311
610.500000	73.693240
609.000000	73.696243
607.500000	73.692370
606.000000	73.661274
604.500000	73.671417
603.000000	73.654283
601.500000	73.656694
600.000000	73.684767
598.500000	73.608945
597.000000	73.557067
595.500000	73.521305
594.000000	73.514940
592.500000	73.511302
591.000000	73.491046
589.500000	73.487444
588.000000	73.424432
586.500000	73.364589
585.000000	73.331227
583.500000	73.340315
582.000000	73.326246
580.500000	73.317094
579.000000	73.330192
577.500000	73.295533
576.000000	73.272526
574.500000	73.226825
573.000000	73.187503
571.500000	73.136981
570.000000	73.121584
568.500000	73.129526
567.000000	73.090907
565.500000	73.045640
564.000000	73.011661
562.500000	73.035764
561.000000	73.180689
559.500000	73.288525
558.000000	73.305876
556.500000	73.309678
555.000000	73.259491
553.500000	73.226735
552.000000	73.232928
550.500000	73.210267
549.000000	73.198324
547.500000	73.185069
546.000000	73.186178
544.500000	73.203033
543.000000	73.176111
541.500000	73.169756
540.000000	73.165294
538.500000	73.140426
537.000000	73.159430
535.500000	73.184927
534.000000	73.186544
532.500000	73.181824
531.000000	73.176245
529.500000	73.166381
528.000000	73.149075
526.500000	73.151692
525.000000	73.148255
523.500000	73.134723
522.000000	73.080544
520.500000	73.001533
519.000000	72.902945
517.500000	72.799252
516.000000	72.645055
514.500000	72.452712
513.000000	72.231129
511.500000	71.990638
510.000000	71.718595
508.500000	71.486924
507.000000	71.279691
505.500000	71.063277
504.000000	70.928012
502.500000	70.845066
501.000000	70.797044
499.500000	70.733505
498.000000	70.749118
496.500000	70.804838
495.000000	70.926169
493.500000	71.010864
492.000000	71.108641
490.500000	71.255669
489.000000	71.441375
487.500000	71.598134
486.000000	71.707769
484.500000	71.971822
483.000000	72.300507
481.500000	72.659166
480.000000	72.816345
478.500000	72.608458
477.000000	72.409135
475.500000	72.315407
474.000000	72.189686
472.500000	72.078482
471.000000	71.954152
469.500000	71.731640
468.000000	71.488201
466.500000	71.255872
465.000000	70.996210
463.500000	70.745641
462.000000	70.551192
460.500000	70.405186
459.000000	70.263110
457.500000	70.164867
456.000000	70.147221
454.500000	70.149311
453.000000	70.169866
451.500000	70.104159
450.000000	70.100222
448.500000	70.112077
447.000000	70.128000
445.500000	70.155521
444.000000	70.375652
442.500000	70.570730
441.000000	70.410826
439.500000	70.314682
438.000000	70.235764
436.500000	70.188844
435.000000	70.135002
433.500000	70.073003
432.000000	70.024082
430.500000	70.020159
429.000000	69.869931
427.500000	69.810656
426.000000	69.800891
424.500000	69.689469
423.000000	69.595544
421.500000	69.623819
420.000000	69.524976
418.500000	69.409793
417.000000	69.349984
415.500000	69.314799
414.000000	69.160344
412.500000	69.030098
411.000000	69.043160
409.500000	68.919531
408.000000	68.824986
406.500000	68.762844
405.000000	68.651336
403.500000	68.511521
402.000000	68.486700
400.500000	68.328797
399.000000	68.267528
397.500000	68.103082
396.000000	68.040190
394.500000	67.885418
393.000000	67.775600
391.500000	67.652435
390.000000	67.470401
388.500000	67.307248
387.000000	67.099789
385.500000	66.826355
384.000000	66.603468
382.500000	66.502506
381.000000	66.182360
379.500000	65.904494
378.000000	65.702044
376.500000	66.102054
375.000000	66.388205
373.500000	65.452772
372.000000	64.537759
370.500000	63.445546
369.000000	62.411817
367.500000	61.116218
366.000000	59.443482
364.500000	57.800206
363.000000	55.668180
361.500000	53.130079
360.000000	50.236020
358.500000	46.919348
357.000000	42.986921
355.500000	38.522566
354.000000	33.744655
352.500000	28.620378
351.000000	23.389856
349.500000	18.292324
348.000000	13.579081
346.500000	9.433002
345.000000	6.008223
343.500000	3.472771
342.000000	1.762774
340.500000	0.796773
339.000000	0.298353
337.500000	0.089693
336.000000	0.044556
334.500000	0.033972
333.000000	0.032236
331.500000	0.022822
330.000000	0.020030
328.500000	0.028787
327.000000	0.030277
325.500000	0.036478
324.000000	0.034427
322.500000	0.045750
321.000000	0.044476
319.500000	0.040253
318.000000	0.015410
316.500000	-0.018950
315.000000	-0.018485
313.500000	-0.024507
312.000000	-0.015607
310.500000	-0.015426
309.000000	-0.014429
307.500000	-0.011065
306.000000	0.001042
304.500000	0.006350
303.000000	0.000854
301.500000	-0.008357
300.000000	-0.006944
