PE UV       SUBTECH     SPECTRUM    ASCII       PEDS        4.00        
   -1
Sample125.Sample.Raw.asc
20/12/17
16:32:38.00
20/12/17
16:32:38.00
Administrator

300.000000
1
Lambda 850
850L1710193
PerkinElmer UV WinLab 6.4.0.973 / 2.02.06 Lambda 800 UV/VIS, Jan 28 2016 16:58:34

0
0
2
0
0
UV/VIS
1
1
1
RBeamAtt,SBeamAtt,60mm sphere
0
0
0
0
Fix
 
0
0.2
0
0
0
 
 
 
0
 
0
319.2
0
Front
100
 
S:100 R:100
 
0
0
0
 
0
 
 
 
0
 
 
0
0
0
0
0
 
 
 
 
0
0


0
0
#HDR
-1
-1
#GR
nm
%T
1.0
0.0
750.000000
-1.500000
301
8
75.486718
-0.040846
#DATA
750.000000	75.189510
748.500000	75.394491
747.000000	75.486718
745.500000	75.283834
744.000000	75.465277
742.500000	75.410974
741.000000	75.461049
739.500000	75.375508
738.000000	75.407870
736.500000	75.247965
735.000000	75.329840
733.500000	75.370272
732.000000	75.429127
730.500000	75.328346
729.000000	75.433122
727.500000	75.383515
726.000000	75.241853
724.500000	75.313423
723.000000	75.349520
721.500000	75.309378
720.000000	75.232109
718.500000	75.195475
717.000000	75.268902
715.500000	75.183090
714.000000	75.168926
712.500000	75.245203
711.000000	75.237241
709.500000	75.153193
708.000000	75.217850
706.500000	75.272701
705.000000	75.215278
703.500000	75.279526
702.000000	75.256231
700.500000	75.174190
699.000000	75.076353
697.500000	75.146695
696.000000	75.123984
694.500000	75.122922
693.000000	75.084597
691.500000	75.012309
690.000000	74.933895
688.500000	75.050655
687.000000	75.010327
685.500000	75.072894
684.000000	75.132464
682.500000	75.052442
681.000000	74.983269
679.500000	74.979842
678.000000	75.033698
676.500000	75.049304
675.000000	75.019478
673.500000	74.930279
672.000000	74.907444
670.500000	74.932151
669.000000	74.869861
667.500000	74.891472
666.000000	74.871885
664.500000	74.826337
663.000000	74.865093
661.500000	74.828925
660.000000	74.750793
658.500000	74.766649
657.000000	74.824703
655.500000	74.850047
654.000000	74.810234
652.500000	74.803719
651.000000	74.778266
649.500000	74.721752
648.000000	74.713393
646.500000	74.745501
645.000000	74.720976
643.500000	74.725951
642.000000	74.705275
640.500000	74.678321
639.000000	74.648703
637.500000	74.638766
636.000000	74.645392
634.500000	74.648183
633.000000	74.612302
631.500000	74.550579
630.000000	74.535926
628.500000	74.565999
627.000000	74.562165
625.500000	74.533070
624.000000	74.519379
622.500000	74.490859
621.000000	74.469867
619.500000	74.479496
618.000000	74.447147
616.500000	74.399482
615.000000	74.390615
613.500000	74.420684
612.000000	74.375031
610.500000	74.324969
609.000000	74.306525
607.500000	74.307584
606.000000	74.300817
604.500000	74.292638
603.000000	74.293470
601.500000	74.280018
600.000000	74.280945
598.500000	74.232255
597.000000	74.203065
595.500000	74.205490
594.000000	74.184969
592.500000	74.162860
591.000000	74.156474
589.500000	74.140833
588.000000	74.142621
586.500000	74.105630
585.000000	74.058384
583.500000	74.064639
582.000000	74.070082
580.500000	74.040947
579.000000	73.986389
577.500000	73.969623
576.000000	73.975974
574.500000	73.971957
573.000000	73.922565
571.500000	73.909942
570.000000	73.879922
568.500000	73.838116
567.000000	73.814771
565.500000	73.771237
564.000000	73.729161
562.500000	73.760901
561.000000	73.932881
559.500000	74.045043
558.000000	74.029608
556.500000	74.037921
555.000000	74.020427
553.500000	73.980698
552.000000	73.978292
550.500000	73.995063
549.000000	73.970279
547.500000	73.932363
546.000000	73.967010
544.500000	73.977090
543.000000	73.942057
541.500000	73.952160
540.000000	73.966682
538.500000	73.941300
537.000000	73.955611
535.500000	73.983830
534.000000	73.978374
532.500000	73.942260
531.000000	73.938443
529.500000	73.951316
528.000000	73.946700
526.500000	73.944446
525.000000	73.948264
523.500000	73.921832
522.000000	73.873945
520.500000	73.797236
519.000000	73.695314
517.500000	73.578552
516.000000	73.410433
514.500000	73.218142
513.000000	73.013780
511.500000	72.779513
510.000000	72.526716
508.500000	72.270094
507.000000	72.014424
505.500000	71.824493
504.000000	71.682632
502.500000	71.572038
501.000000	71.524447
499.500000	71.482140
498.000000	71.470562
496.500000	71.529273
495.000000	71.636771
493.500000	71.736485
492.000000	71.861448
490.500000	72.010467
489.000000	72.177554
487.500000	72.290465
486.000000	72.447859
484.500000	72.700180
483.000000	72.964086
481.500000	73.398238
480.000000	73.596568
478.500000	73.388625
477.000000	73.195739
475.500000	73.052417
474.000000	72.938914
472.500000	72.843736
471.000000	72.685958
469.500000	72.484965
468.000000	72.259802
466.500000	71.994762
465.000000	71.716265
463.500000	71.471868
462.000000	71.274841
460.500000	71.133530
459.000000	71.012700
457.500000	70.897683
456.000000	70.896812
454.500000	70.806319
453.000000	70.819604
451.500000	70.783403
450.000000	70.780525
448.500000	70.814289
447.000000	70.788559
445.500000	70.848730
444.000000	71.049439
442.500000	71.241224
441.000000	71.083817
439.500000	71.047414
438.000000	70.959717
436.500000	70.899171
435.000000	70.829942
433.500000	70.750805
432.000000	70.705573
430.500000	70.715580
429.000000	70.609956
427.500000	70.525835
426.000000	70.499893
424.500000	70.425794
423.000000	70.290780
421.500000	70.290681
420.000000	70.203244
418.500000	70.097739
417.000000	70.086802
415.500000	69.983671
414.000000	69.883574
412.500000	69.785283
411.000000	69.740737
409.500000	69.605823
408.000000	69.590708
406.500000	69.530960
405.000000	69.341142
403.500000	69.196966
402.000000	69.180837
400.500000	69.048288
399.000000	69.055103
397.500000	68.943630
396.000000	68.802889
394.500000	68.635872
393.000000	68.527726
391.500000	68.407416
390.000000	68.230547
388.500000	68.086324
387.000000	67.959489
385.500000	67.695263
384.000000	67.603991
382.500000	67.417588
381.000000	67.071029
379.500000	66.859609
378.000000	66.768329
376.500000	67.175299
375.000000	67.398405
373.500000	66.517613
372.000000	65.768908
370.500000	64.458476
369.000000	63.422938
367.500000	62.026474
366.000000	60.429174
364.500000	58.577193
363.000000	56.446793
361.500000	53.671360
360.000000	50.571338
358.500000	46.969797
357.000000	42.746741
355.500000	38.069192
354.000000	32.906205
352.500000	27.441848
351.000000	22.007816
349.500000	16.757999
348.000000	12.007718
346.500000	8.009885
345.000000	4.862399
343.500000	2.650851
342.000000	1.254480
340.500000	0.513577
339.000000	0.177141
337.500000	0.066923
336.000000	0.032699
334.500000	0.019439
333.000000	0.026400
331.500000	0.029316
330.000000	0.022534
328.500000	0.026465
327.000000	0.034271
325.500000	0.032663
324.000000	0.029030
322.500000	0.036059
321.000000	0.044103
319.500000	0.015002
318.000000	-0.004698
316.500000	-0.034992
315.000000	-0.037064
313.500000	-0.040846
312.000000	-0.039393
310.500000	-0.037812
309.000000	-0.027066
307.500000	-0.026006
306.000000	-0.013071
304.500000	-0.016869
303.000000	-0.013666
301.500000	-0.020323
300.000000	-0.023306
