PE UV       SUBTECH     SPECTRUM    ASCII       PEDS        4.00        
   -1
Sample150.Sample.Raw.asc
21/01/27
12:02:14.00
21/01/27
12:02:14.00
Administrator

300.000000
1
Lambda 850
850L1710193
PerkinElmer UV WinLab 6.4.0.973 / 2.02.06 Lambda 800 UV/VIS, Jan 28 2016 16:58:34

0
0
2
0
0
UV/VIS
1
1
1
RBeamAtt,SBeamAtt,60mm sphere
0
0
0
0
Fix
 
0
0.2
0
0
0
 
 
 
0
 
0
319.2
0
Front
100
 
S:100 R:100
 
0
0
0
 
0
 
 
 
0
 
 
0
0
0
0
0
 
 
 
 
0
0


0
0
#HDR
-1
-1
#GR
nm
%T
1.0
0.0
750.000000
-1.500000
301
8
73.940868
-0.025030
#DATA
750.000000	73.497272
748.500000	73.819913
747.000000	73.886681
745.500000	73.940868
744.000000	73.650010
742.500000	73.685892
741.000000	73.725623
739.500000	73.814663
738.000000	73.655116
736.500000	73.771658
735.000000	73.660638
733.500000	73.622911
732.000000	73.524505
730.500000	73.647739
729.000000	73.571610
727.500000	73.547187
726.000000	73.569916
724.500000	73.607108
723.000000	73.637501
721.500000	73.580156
720.000000	73.555072
718.500000	73.546296
717.000000	73.367531
715.500000	73.437752
714.000000	73.448620
712.500000	73.321642
711.000000	73.300381
709.500000	73.400668
708.000000	73.354894
706.500000	73.280009
705.000000	73.337414
703.500000	73.297182
702.000000	73.322588
700.500000	73.272718
699.000000	73.197984
697.500000	73.127950
696.000000	73.175089
694.500000	73.147787
693.000000	73.067192
691.500000	73.139015
690.000000	72.966704
688.500000	73.079404
687.000000	73.012256
685.500000	73.062786
684.000000	73.025467
682.500000	72.964235
681.000000	72.907621
679.500000	72.920901
678.000000	72.895081
676.500000	72.874263
675.000000	72.798117
673.500000	72.848588
672.000000	72.779839
670.500000	72.755973
669.000000	72.709434
667.500000	72.712321
666.000000	72.666493
664.500000	72.634970
663.000000	72.543301
661.500000	72.532056
660.000000	72.493311
658.500000	72.398164
657.000000	72.429878
655.500000	72.394855
654.000000	72.371700
652.500000	72.311967
651.000000	72.234159
649.500000	72.166671
648.000000	72.101483
646.500000	72.128746
645.000000	72.068475
643.500000	71.970078
642.000000	71.868399
640.500000	71.832376
639.000000	71.760625
637.500000	71.749480
636.000000	71.682522
634.500000	71.663801
633.000000	71.532485
631.500000	71.463154
630.000000	71.436393
628.500000	71.370243
627.000000	71.357148
625.500000	71.326976
624.000000	71.209672
622.500000	71.117075
621.000000	71.023034
619.500000	71.002707
618.000000	70.962025
616.500000	70.889326
615.000000	70.801935
613.500000	70.721662
612.000000	70.676695
610.500000	70.621740
609.000000	70.519967
607.500000	70.455056
606.000000	70.404652
604.500000	70.340248
603.000000	70.257069
601.500000	70.190702
600.000000	70.119594
598.500000	70.068179
597.000000	70.004120
595.500000	69.928324
594.000000	69.799043
592.500000	69.751967
591.000000	69.697624
589.500000	69.625302
588.000000	69.571436
586.500000	69.517947
585.000000	69.426882
583.500000	69.340868
582.000000	69.291085
580.500000	69.250497
579.000000	69.200902
577.500000	69.099774
576.000000	69.011694
574.500000	68.941745
573.000000	68.858663
571.500000	68.797764
570.000000	68.755766
568.500000	68.681640
567.000000	68.606832
565.500000	68.512136
564.000000	68.413834
562.500000	68.381896
561.000000	68.458171
559.500000	68.533028
558.000000	68.527131
556.500000	68.494832
555.000000	68.435605
553.500000	68.384418
552.000000	68.338999
550.500000	68.288738
549.000000	68.230402
547.500000	68.172030
546.000000	68.116256
544.500000	68.087190
543.000000	68.067711
541.500000	68.036385
540.000000	68.002293
538.500000	67.990760
537.000000	67.981063
535.500000	67.918851
534.000000	67.871525
532.500000	67.863767
531.000000	67.838241
529.500000	67.817241
528.000000	67.801630
526.500000	67.755182
525.000000	67.732996
523.500000	67.681282
522.000000	67.568379
520.500000	67.456577
519.000000	67.370201
517.500000	67.240510
516.000000	67.054581
514.500000	66.822617
513.000000	66.588383
511.500000	66.361574
510.000000	66.092341
508.500000	65.817431
507.000000	65.546435
505.500000	65.275718
504.000000	65.064789
502.500000	64.932666
501.000000	64.810089
499.500000	64.746439
498.000000	64.689934
496.500000	64.638435
495.000000	64.661303
493.500000	64.655231
492.000000	64.735652
490.500000	64.800256
489.000000	64.914277
487.500000	64.994936
486.000000	65.126014
484.500000	65.262145
483.000000	65.633018
481.500000	66.017823
480.000000	66.171351
478.500000	66.032772
477.000000	65.866216
475.500000	65.729392
474.000000	65.610175
472.500000	65.486289
471.000000	65.343798
469.500000	65.154883
468.000000	64.937900
466.500000	64.668300
465.000000	64.406415
463.500000	64.153631
462.000000	63.912300
460.500000	63.681786
459.000000	63.520449
457.500000	63.405589
456.000000	63.294452
454.500000	63.237550
453.000000	63.198493
451.500000	63.113651
450.000000	63.050073
448.500000	62.945943
447.000000	62.874407
445.500000	62.848867
444.000000	63.083424
442.500000	63.186385
441.000000	63.090980
439.500000	62.994604
438.000000	62.897799
436.500000	62.821901
435.000000	62.665278
433.500000	62.617982
432.000000	62.516004
430.500000	62.420461
429.000000	62.401110
427.500000	62.265911
426.000000	62.129680
424.500000	62.087787
423.000000	62.061088
421.500000	61.907518
420.000000	61.857123
418.500000	61.779464
417.000000	61.686043
415.500000	61.565268
414.000000	61.420046
412.500000	61.340848
411.000000	61.248155
409.500000	61.117758
408.000000	61.033169
406.500000	60.936989
405.000000	60.803832
403.500000	60.694998
402.000000	60.606921
400.500000	60.463923
399.000000	60.363773
397.500000	60.273489
396.000000	60.096982
394.500000	59.944836
393.000000	59.777858
391.500000	59.769989
390.000000	59.653034
388.500000	59.468346
387.000000	59.271787
385.500000	59.097413
384.000000	58.947228
382.500000	58.675820
381.000000	58.499025
379.500000	58.240426
378.000000	58.168331
376.500000	58.396605
375.000000	58.579150
373.500000	57.926342
372.000000	57.244068
370.500000	56.336721
369.000000	55.481512
367.500000	54.322535
366.000000	52.992544
364.500000	51.464102
363.000000	49.772807
361.500000	47.617821
360.000000	45.078796
358.500000	42.207064
357.000000	38.774690
355.500000	35.047817
354.000000	30.665371
352.500000	26.220835
351.000000	21.503276
349.500000	16.957041
348.000000	12.640468
346.500000	8.835487
345.000000	5.706170
343.500000	3.321016
342.000000	1.729797
340.500000	0.779718
339.000000	0.310637
337.500000	0.111007
336.000000	0.049529
334.500000	0.045580
333.000000	0.039790
331.500000	0.045596
330.000000	0.042817
328.500000	0.042801
327.000000	0.044169
325.500000	0.046658
324.000000	0.044773
322.500000	0.049317
321.000000	0.054807
319.500000	0.043932
318.000000	-0.001510
316.500000	-0.021924
315.000000	-0.025030
313.500000	-0.024207
312.000000	-0.023115
310.500000	-0.021715
309.000000	-0.020518
307.500000	-0.011650
306.000000	-0.006643
304.500000	-0.006180
303.000000	-0.011518
301.500000	-0.010862
300.000000	-0.015468
