PE UV       SUBTECH     SPECTRUM    ASCII       PEDS        4.00        
   -1
Sample126.Sample.Raw.asc
20/12/17
16:37:33.00
20/12/17
16:37:33.00
Administrator

300.000000
1
Lambda 850
850L1710193
PerkinElmer UV WinLab 6.4.0.973 / 2.02.06 Lambda 800 UV/VIS, Jan 28 2016 16:58:34

0
0
2
0
0
UV/VIS
1
1
1
RBeamAtt,SBeamAtt,60mm sphere
0
0
0
0
Fix
 
0
0.2
0
0
0
 
 
 
0
 
0
319.2
0
Front
100
 
S:100 R:100
 
0
0
0
 
0
 
 
 
0
 
 
0
0
0
0
0
 
 
 
 
0
0


0
0
#HDR
-1
-1
#GR
nm
%T
1.0
0.0
750.000000
-1.500000
301
8
74.291833
-0.039120
#DATA
750.000000	73.982329
748.500000	74.205275
747.000000	74.208655
745.500000	74.233944
744.000000	74.291833
742.500000	74.086338
741.000000	74.160180
739.500000	74.112215
738.000000	74.096419
736.500000	73.977391
735.000000	74.077139
733.500000	74.039898
732.000000	74.164153
730.500000	74.114072
729.000000	73.986925
727.500000	73.942180
726.000000	73.989249
724.500000	74.101852
723.000000	74.118657
721.500000	74.109384
720.000000	73.980289
718.500000	74.054166
717.000000	73.984286
715.500000	73.932203
714.000000	73.927966
712.500000	73.939218
711.000000	74.008539
709.500000	73.862937
708.000000	73.917553
706.500000	73.978122
705.000000	73.932130
703.500000	73.977301
702.000000	73.977543
700.500000	73.864643
699.000000	73.784754
697.500000	73.764337
696.000000	73.714178
694.500000	73.792247
693.000000	73.675357
691.500000	73.732305
690.000000	73.626330
688.500000	73.785714
687.000000	73.779797
685.500000	73.820045
684.000000	73.822728
682.500000	73.696160
681.000000	73.625699
679.500000	73.656632
678.000000	73.725263
676.500000	73.694763
675.000000	73.698032
673.500000	73.605920
672.000000	73.644057
670.500000	73.645733
669.000000	73.584378
667.500000	73.623349
666.000000	73.661664
664.500000	73.553549
663.000000	73.551133
661.500000	73.590448
660.000000	73.512988
658.500000	73.519866
657.000000	73.493230
655.500000	73.487858
654.000000	73.491217
652.500000	73.466482
651.000000	73.451196
649.500000	73.424864
648.000000	73.390788
646.500000	73.434804
645.000000	73.389891
643.500000	73.355911
642.000000	73.403928
640.500000	73.405677
639.000000	73.315781
637.500000	73.310713
636.000000	73.273475
634.500000	73.269333
633.000000	73.265805
631.500000	73.254388
630.000000	73.248528
628.500000	73.253037
627.000000	73.244624
625.500000	73.208121
624.000000	73.174524
622.500000	73.135128
621.000000	73.167543
619.500000	73.174898
618.000000	73.069535
616.500000	73.054303
615.000000	73.072119
613.500000	73.057853
612.000000	73.030480
610.500000	72.987233
609.000000	72.962666
607.500000	72.962642
606.000000	72.962009
604.500000	72.969583
603.000000	72.920023
601.500000	72.864192
600.000000	72.884771
598.500000	72.865118
597.000000	72.823676
595.500000	72.785226
594.000000	72.758186
592.500000	72.749747
591.000000	72.740612
589.500000	72.752331
588.000000	72.706407
586.500000	72.673550
585.000000	72.647878
583.500000	72.638686
582.000000	72.629953
580.500000	72.579542
579.000000	72.564821
577.500000	72.542245
576.000000	72.531373
574.500000	72.498610
573.000000	72.448813
571.500000	72.414743
570.000000	72.380324
568.500000	72.359804
567.000000	72.327451
565.500000	72.259427
564.000000	72.201804
562.500000	72.239135
561.000000	72.392682
559.500000	72.489565
558.000000	72.473150
556.500000	72.442046
555.000000	72.409796
553.500000	72.390971
552.000000	72.389244
550.500000	72.355379
549.000000	72.312787
547.500000	72.283660
546.000000	72.282652
544.500000	72.250964
543.000000	72.198043
541.500000	72.194494
540.000000	72.181464
538.500000	72.152267
537.000000	72.153559
535.500000	72.144428
534.000000	72.115336
532.500000	72.092210
531.000000	72.079078
529.500000	72.051708
528.000000	72.023866
526.500000	72.004494
525.000000	71.962607
523.500000	71.888906
522.000000	71.817479
520.500000	71.747556
519.000000	71.657275
517.500000	71.521068
516.000000	71.356154
514.500000	71.175206
513.000000	70.948573
511.500000	70.723994
510.000000	70.470373
508.500000	70.223449
507.000000	70.023875
505.500000	69.856441
504.000000	69.736259
502.500000	69.692699
501.000000	69.702428
499.500000	69.683516
498.000000	69.738452
496.500000	69.865455
495.000000	70.034685
493.500000	70.189018
492.000000	70.310967
490.500000	70.439936
489.000000	70.635526
487.500000	70.763976
486.000000	70.861487
484.500000	71.056335
483.000000	71.336955
481.500000	71.659038
480.000000	71.695589
478.500000	71.419454
477.000000	71.157213
475.500000	71.048872
474.000000	70.868669
472.500000	70.715581
471.000000	70.555891
469.500000	70.305168
468.000000	70.083774
466.500000	69.829601
465.000000	69.528954
463.500000	69.304588
462.000000	69.134758
460.500000	69.024803
459.000000	68.879640
457.500000	68.805848
456.000000	68.821432
454.500000	68.812648
453.000000	68.891977
451.500000	68.894742
450.000000	68.925108
448.500000	68.927746
447.000000	68.939595
445.500000	69.004047
444.000000	69.247339
442.500000	69.462169
441.000000	69.236114
439.500000	69.190812
438.000000	69.022259
436.500000	68.981749
435.000000	68.952722
433.500000	68.840680
432.000000	68.779493
430.500000	68.732683
429.000000	68.646045
427.500000	68.575186
426.000000	68.505009
424.500000	68.369316
423.000000	68.274958
421.500000	68.254006
420.000000	68.164635
418.500000	68.063175
417.000000	68.097021
415.500000	67.946755
414.000000	67.797924
412.500000	67.638543
411.000000	67.595773
409.500000	67.464604
408.000000	67.413853
406.500000	67.322863
405.000000	67.140892
403.500000	67.019838
402.000000	66.889731
400.500000	66.777601
399.000000	66.710854
397.500000	66.498376
396.000000	66.481748
394.500000	66.215358
393.000000	66.047612
391.500000	65.932322
390.000000	65.760097
388.500000	65.541622
387.000000	65.350132
385.500000	64.980472
384.000000	64.721479
382.500000	64.533121
381.000000	64.226516
379.500000	63.788933
378.000000	63.513671
376.500000	63.966195
375.000000	64.017901
373.500000	62.908903
372.000000	61.892318
370.500000	60.407119
369.000000	59.165568
367.500000	57.548964
366.000000	55.440760
364.500000	53.060282
363.000000	50.316951
361.500000	46.984514
360.000000	43.231629
358.500000	39.025219
357.000000	34.217935
355.500000	29.009691
354.000000	23.621341
352.500000	18.402102
351.000000	13.540848
349.500000	9.418458
348.000000	6.122240
346.500000	3.726983
345.000000	2.126326
343.500000	1.132217
342.000000	0.560748
340.500000	0.247001
339.000000	0.100284
337.500000	0.059703
336.000000	0.033718
334.500000	0.026011
333.000000	0.024269
331.500000	0.024306
330.000000	0.024018
328.500000	0.028415
327.000000	0.034735
325.500000	0.030522
324.000000	0.025867
322.500000	0.035873
321.000000	0.029091
319.500000	0.018356
318.000000	-0.009021
316.500000	-0.039120
315.000000	-0.038659
313.500000	-0.034461
312.000000	-0.030367
310.500000	-0.035555
309.000000	-0.027821
307.500000	-0.022791
306.000000	-0.016196
304.500000	-0.011562
303.000000	-0.009016
301.500000	-0.013201
300.000000	-0.014174
