PE UV       SUBTECH     SPECTRUM    ASCII       PEDS        4.00        
   -1
Sample56.Sample.Raw.asc
20/12/15
16:09:35.00
20/12/15
16:09:35.00
Administrator

300.000000
1
Lambda 850
850L1710193
PerkinElmer UV WinLab 6.4.0.973 / 2.02.06 Lambda 800 UV/VIS, Jan 28 2016 16:58:34

0
0
2
0
0
UV/VIS
1
1
1
RBeamAtt,SBeamAtt,60mm sphere
0
0
0
0
Fix
 
0
0.2
0
0
0
 
 
 
0
 
0
319.2
0
Front
100
 
S:100 R:100
 
0
0
0
 
0
 
 
 
0
 
 
0
0
0
0
0
 
 
 
 
0
0


0
0
#HDR
-1
-1
#GR
nm
%T
1.0
0.0
750.000000
-1.500000
301
8
75.574224
-0.046588
#DATA
750.000000	75.043627
748.500000	75.466100
747.000000	75.574224
745.500000	75.401746
744.000000	75.547749
742.500000	75.523448
741.000000	75.534539
739.500000	75.294932
738.000000	75.399581
736.500000	75.394316
735.000000	75.466969
733.500000	75.218341
732.000000	75.280945
730.500000	75.413579
729.000000	75.214461
727.500000	75.251701
726.000000	75.319383
724.500000	75.372162
723.000000	75.210572
721.500000	75.190049
720.000000	75.168804
718.500000	75.341208
717.000000	75.062748
715.500000	75.118136
714.000000	75.207566
712.500000	75.128475
711.000000	75.302993
709.500000	75.052306
708.000000	75.096972
706.500000	75.100737
705.000000	75.149356
703.500000	75.122584
702.000000	75.107430
700.500000	75.065941
699.000000	75.104112
697.500000	74.978676
696.000000	74.981202
694.500000	74.904330
693.000000	74.888957
691.500000	74.954301
690.000000	74.711132
688.500000	75.018266
687.000000	75.031782
685.500000	75.004707
684.000000	74.983318
682.500000	74.913939
681.000000	74.973144
679.500000	74.930429
678.000000	74.816456
676.500000	74.842137
675.000000	74.812230
673.500000	74.769929
672.000000	74.724517
670.500000	74.823661
669.000000	74.771821
667.500000	74.827447
666.000000	74.741504
664.500000	74.772499
663.000000	74.791319
661.500000	74.736810
660.000000	74.679268
658.500000	74.639491
657.000000	74.655995
655.500000	74.653619
654.000000	74.635039
652.500000	74.619707
651.000000	74.655448
649.500000	74.692282
648.000000	74.651467
646.500000	74.625059
645.000000	74.579511
643.500000	74.555082
642.000000	74.563586
640.500000	74.517746
639.000000	74.445574
637.500000	74.433464
636.000000	74.472042
634.500000	74.462156
633.000000	74.426612
631.500000	74.415299
630.000000	74.384862
628.500000	74.446391
627.000000	74.368034
625.500000	74.366903
624.000000	74.392587
622.500000	74.365986
621.000000	74.318084
619.500000	74.348337
618.000000	74.302334
616.500000	74.301919
615.000000	74.260893
613.500000	74.269148
612.000000	74.238690
610.500000	74.219001
609.000000	74.192316
607.500000	74.118570
606.000000	74.106509
604.500000	74.066400
603.000000	74.076010
601.500000	74.067793
600.000000	74.055597
598.500000	74.071755
597.000000	74.111282
595.500000	74.061369
594.000000	74.039280
592.500000	74.016231
591.000000	73.971156
589.500000	73.977201
588.000000	73.963203
586.500000	73.949035
585.000000	73.959405
583.500000	73.962595
582.000000	73.892135
580.500000	73.835136
579.000000	73.834864
577.500000	73.870128
576.000000	73.870070
574.500000	73.843998
573.000000	73.829537
571.500000	73.794956
570.000000	73.715284
568.500000	73.669099
567.000000	73.658467
565.500000	73.623523
564.000000	73.567472
562.500000	73.586253
561.000000	73.734860
559.500000	73.848983
558.000000	73.836488
556.500000	73.827777
555.000000	73.786255
553.500000	73.780046
552.000000	73.820855
550.500000	73.802931
549.000000	73.773516
547.500000	73.784347
546.000000	73.811134
544.500000	73.776586
543.000000	73.744939
541.500000	73.756691
540.000000	73.751613
538.500000	73.762847
537.000000	73.782270
535.500000	73.772344
534.000000	73.778876
532.500000	73.772097
531.000000	73.781725
529.500000	73.801238
528.000000	73.776528
526.500000	73.760351
525.000000	73.758890
523.500000	73.720809
522.000000	73.671914
520.500000	73.626404
519.000000	73.525216
517.500000	73.394475
516.000000	73.236816
514.500000	73.044936
513.000000	72.819316
511.500000	72.581414
510.000000	72.340601
508.500000	72.078719
507.000000	71.820830
505.500000	71.631219
504.000000	71.447472
502.500000	71.347402
501.000000	71.319652
499.500000	71.327571
498.000000	71.332224
496.500000	71.377861
495.000000	71.456429
493.500000	71.570648
492.000000	71.696205
490.500000	71.814426
489.000000	71.939878
487.500000	72.069103
486.000000	72.211890
484.500000	72.458353
483.000000	72.801481
481.500000	73.234805
480.000000	73.406992
478.500000	73.217676
477.000000	72.996537
475.500000	72.854904
474.000000	72.730421
472.500000	72.608457
471.000000	72.490448
469.500000	72.289594
468.000000	72.046969
466.500000	71.813869
465.000000	71.527303
463.500000	71.285642
462.000000	71.055326
460.500000	70.920813
459.000000	70.801021
457.500000	70.665159
456.000000	70.629142
454.500000	70.610138
453.000000	70.507779
451.500000	70.519931
450.000000	70.520864
448.500000	70.550398
447.000000	70.524839
445.500000	70.501685
444.000000	70.787652
442.500000	70.971044
441.000000	70.876379
439.500000	70.758175
438.000000	70.697473
436.500000	70.706027
435.000000	70.619600
433.500000	70.513338
432.000000	70.518586
430.500000	70.440592
429.000000	70.372371
427.500000	70.302069
426.000000	70.234586
424.500000	70.208539
423.000000	70.105895
421.500000	69.993233
420.000000	69.980486
418.500000	69.883418
417.000000	69.825602
415.500000	69.692726
414.000000	69.642291
412.500000	69.555670
411.000000	69.487710
409.500000	69.326295
408.000000	69.286631
406.500000	69.204187
405.000000	69.146894
403.500000	68.989599
402.000000	68.844836
400.500000	68.747214
399.000000	68.613485
397.500000	68.584856
396.000000	68.354399
394.500000	68.236198
393.000000	68.228796
391.500000	68.071700
390.000000	67.904978
388.500000	67.767068
387.000000	67.659569
385.500000	67.436291
384.000000	67.223712
382.500000	66.952447
381.000000	66.630904
379.500000	66.430918
378.000000	66.299924
376.500000	66.964289
375.000000	67.043448
373.500000	66.243498
372.000000	65.321044
370.500000	64.333171
369.000000	63.074735
367.500000	61.766212
366.000000	60.255674
364.500000	58.528221
363.000000	56.465636
361.500000	53.764855
360.000000	50.880847
358.500000	47.277461
357.000000	43.248928
355.500000	38.704364
354.000000	33.588336
352.500000	28.312846
351.000000	22.903340
349.500000	17.691621
348.000000	12.937286
346.500000	8.805618
345.000000	5.501069
343.500000	3.104447
342.000000	1.522259
340.500000	0.651328
339.000000	0.238492
337.500000	0.079676
336.000000	0.038063
334.500000	0.039536
333.000000	0.027867
331.500000	0.037685
330.000000	0.035591
328.500000	0.037706
327.000000	0.046336
325.500000	0.044270
324.000000	0.047713
322.500000	0.044187
321.000000	0.042401
319.500000	0.040313
318.000000	-0.006773
316.500000	-0.033995
315.000000	-0.046588
313.500000	-0.045133
312.000000	-0.039525
310.500000	-0.027778
309.000000	-0.029145
307.500000	-0.031010
306.000000	-0.020185
304.500000	-0.013849
303.000000	-0.015312
301.500000	-0.025015
300.000000	-0.014646
