PE UV       SUBTECH     SPECTRUM    ASCII       PEDS        4.00        
   -1
Sample53.Sample.Raw.asc
20/12/15
15:59:53.00
20/12/15
15:59:53.00
Administrator

300.000000
1
Lambda 850
850L1710193
PerkinElmer UV WinLab 6.4.0.973 / 2.02.06 Lambda 800 UV/VIS, Jan 28 2016 16:58:34

0
0
2
0
0
UV/VIS
1
1
1
RBeamAtt,SBeamAtt,60mm sphere
0
0
0
0
Fix
 
0
0.2
0
0
0
 
 
 
0
 
0
319.2
0
Front
100
 
S:100 R:100
 
0
0
0
 
0
 
 
 
0
 
 
0
0
0
0
0
 
 
 
 
0
0


0
0
#HDR
-1
-1
#GR
nm
%T
1.0
0.0
750.000000
-1.500000
301
8
74.367378
-0.031278
#DATA
750.000000	73.906601
748.500000	74.169192
747.000000	74.367378
745.500000	74.325956
744.000000	74.277444
742.500000	74.232027
741.000000	74.250692
739.500000	74.133456
738.000000	74.161989
736.500000	74.200203
735.000000	74.147296
733.500000	74.141314
732.000000	74.126384
730.500000	74.239080
729.000000	74.159904
727.500000	74.130114
726.000000	74.140610
724.500000	74.171607
723.000000	74.103395
721.500000	73.958727
720.000000	74.049752
718.500000	74.111300
717.000000	74.028226
715.500000	74.000826
714.000000	74.049591
712.500000	73.863389
711.000000	74.076350
709.500000	73.956047
708.000000	73.965557
706.500000	73.910631
705.000000	73.991940
703.500000	73.967729
702.000000	73.870128
700.500000	73.807782
699.000000	73.973720
697.500000	73.764321
696.000000	73.916927
694.500000	73.765673
693.000000	73.745554
691.500000	73.775102
690.000000	73.702849
688.500000	73.877329
687.000000	73.810494
685.500000	73.820833
684.000000	73.813931
682.500000	73.725129
681.000000	73.771564
679.500000	73.807206
678.000000	73.711098
676.500000	73.707458
675.000000	73.712829
673.500000	73.598270
672.000000	73.610039
670.500000	73.627475
669.000000	73.636933
667.500000	73.644003
666.000000	73.572455
664.500000	73.596010
663.000000	73.661401
661.500000	73.634267
660.000000	73.585928
658.500000	73.546634
657.000000	73.504916
655.500000	73.539927
654.000000	73.508359
652.500000	73.501852
651.000000	73.463920
649.500000	73.448828
648.000000	73.480450
646.500000	73.418863
645.000000	73.358558
643.500000	73.371651
642.000000	73.444371
640.500000	73.412018
639.000000	73.407216
637.500000	73.351948
636.000000	73.319387
634.500000	73.322961
633.000000	73.275102
631.500000	73.292841
630.000000	73.259653
628.500000	73.263539
627.000000	73.238178
625.500000	73.223802
624.000000	73.220674
622.500000	73.181488
621.000000	73.182911
619.500000	73.184200
618.000000	73.140183
616.500000	73.091455
615.000000	73.068196
613.500000	73.039668
612.000000	73.021832
610.500000	73.062122
609.000000	72.999133
607.500000	72.927721
606.000000	72.925575
604.500000	72.890833
603.000000	72.871999
601.500000	72.883113
600.000000	72.884943
598.500000	72.879145
597.000000	72.879610
595.500000	72.857393
594.000000	72.840713
592.500000	72.794330
591.000000	72.729763
589.500000	72.727250
588.000000	72.696753
586.500000	72.681260
585.000000	72.719680
583.500000	72.658364
582.000000	72.596544
580.500000	72.581756
579.000000	72.557011
577.500000	72.560312
576.000000	72.530319
574.500000	72.495185
573.000000	72.497348
571.500000	72.463824
570.000000	72.403112
568.500000	72.353586
567.000000	72.316026
565.500000	72.319772
564.000000	72.246381
562.500000	72.211332
561.000000	72.333241
559.500000	72.446403
558.000000	72.446968
556.500000	72.425186
555.000000	72.406758
553.500000	72.394952
552.000000	72.373912
550.500000	72.328173
549.000000	72.282389
547.500000	72.247599
546.000000	72.274308
544.500000	72.282215
543.000000	72.230059
541.500000	72.196602
540.000000	72.174604
538.500000	72.180442
537.000000	72.179126
535.500000	72.136679
534.000000	72.118387
532.500000	72.102427
531.000000	72.076937
529.500000	72.054686
528.000000	72.016548
526.500000	72.000756
525.000000	71.983117
523.500000	71.932563
522.000000	71.851140
520.500000	71.762560
519.000000	71.666522
517.500000	71.553536
516.000000	71.394125
514.500000	71.187097
513.000000	70.967715
511.500000	70.739299
510.000000	70.474801
508.500000	70.249836
507.000000	70.038709
505.500000	69.893814
504.000000	69.749234
502.500000	69.669176
501.000000	69.682877
499.500000	69.770207
498.000000	69.836182
496.500000	69.892450
495.000000	70.016552
493.500000	70.146711
492.000000	70.344335
490.500000	70.482944
489.000000	70.618924
487.500000	70.783347
486.000000	70.915409
484.500000	71.051921
483.000000	71.312875
481.500000	71.654633
480.000000	71.686940
478.500000	71.447634
477.000000	71.170918
475.500000	70.966401
474.000000	70.826206
472.500000	70.702950
471.000000	70.527798
469.500000	70.328015
468.000000	70.045299
466.500000	69.808831
465.000000	69.557707
463.500000	69.305523
462.000000	69.091420
460.500000	68.997662
459.000000	68.884592
457.500000	68.805043
456.000000	68.746225
454.500000	68.781240
453.000000	68.763689
451.500000	68.797132
450.000000	68.835500
448.500000	68.886932
447.000000	68.842548
445.500000	68.895720
444.000000	69.174477
442.500000	69.324474
441.000000	69.222967
439.500000	69.130528
438.000000	69.095781
436.500000	69.021352
435.000000	68.905422
433.500000	68.853736
432.000000	68.807308
430.500000	68.722601
429.000000	68.669164
427.500000	68.557329
426.000000	68.460030
424.500000	68.427683
423.000000	68.300921
421.500000	68.210915
420.000000	68.173871
418.500000	68.043013
417.000000	67.935310
415.500000	67.882689
414.000000	67.793502
412.500000	67.653915
411.000000	67.604216
409.500000	67.469320
408.000000	67.416241
406.500000	67.330555
405.000000	67.102755
403.500000	66.990269
402.000000	66.910360
400.500000	66.732377
399.000000	66.618863
397.500000	66.475296
396.000000	66.286557
394.500000	66.228160
393.000000	66.109776
391.500000	65.820053
390.000000	65.691820
388.500000	65.506899
387.000000	65.358243
385.500000	65.152299
384.000000	64.744510
382.500000	64.419694
381.000000	64.066335
379.500000	63.670534
378.000000	63.466955
376.500000	63.844887
375.000000	63.920561
373.500000	62.747776
372.000000	61.632256
370.500000	60.323228
369.000000	58.787454
367.500000	57.033801
366.000000	55.118400
364.500000	52.662837
363.000000	49.873779
361.500000	46.446394
360.000000	42.635342
358.500000	38.314092
357.000000	33.508340
355.500000	28.304680
354.000000	22.918727
352.500000	17.685516
351.000000	13.008268
349.500000	8.931800
348.000000	5.764549
346.500000	3.470137
345.000000	1.955436
343.500000	1.037620
342.000000	0.500269
340.500000	0.216432
339.000000	0.084005
337.500000	0.049010
336.000000	0.032969
334.500000	0.044640
333.000000	0.040551
331.500000	0.050495
330.000000	0.045879
328.500000	0.063711
327.000000	0.070758
325.500000	0.068730
324.000000	0.069477
322.500000	0.064931
321.000000	0.074178
319.500000	0.089677
318.000000	-0.005174
316.500000	-0.029205
315.000000	-0.031278
313.500000	-0.027926
312.000000	-0.027009
310.500000	-0.026177
309.000000	-0.022165
307.500000	-0.012952
306.000000	-0.001042
304.500000	0.003320
303.000000	-0.001807
301.500000	-0.001141
300.000000	-0.002853
