PE UV       SUBTECH     SPECTRUM    ASCII       PEDS        4.00        
   -1
Sample13.Sample.Raw.asc
21/03/30
11:46:03.00
21/03/30
11:46:03.00
Administrator

300.000000
1
Lambda 850
850L1710193
PerkinElmer UV WinLab 6.4.0.973 / 2.02.06 Lambda 800 UV/VIS, Jan 28 2016 16:58:34

0
0
2
0
0
UV/VIS
1
1
1
RBeamAtt,SBeamAtt,60mm sphere
0
0
0
0
Fix
 
0
0.2
0
0
0
 
 
 
0
 
0
340
0
Front
100
 
S:100 R:100
 
0
0
0
 
0
 
 
 
0
 
 
0
0
0
0
0
 
 
 
 
0
0


0
0
#HDR
-1
-1
#GR
nm
%T
1.0
0.0
750.000000
-1.500000
301
8
72.545374
-0.032807
#DATA
750.000000	72.247513
748.500000	72.371867
747.000000	72.545374
745.500000	72.380484
744.000000	72.410421
742.500000	72.409584
741.000000	72.232956
739.500000	72.298963
738.000000	72.401830
736.500000	72.212802
735.000000	72.156255
733.500000	72.209227
732.000000	72.264890
730.500000	72.361476
729.000000	72.135877
727.500000	72.144727
726.000000	72.141453
724.500000	72.079075
723.000000	72.102643
721.500000	72.124046
720.000000	72.071523
718.500000	72.025829
717.000000	71.953351
715.500000	71.909148
714.000000	71.917768
712.500000	71.964632
711.000000	71.895335
709.500000	71.941731
708.000000	71.915842
706.500000	71.873674
705.000000	71.918555
703.500000	71.826347
702.000000	71.857925
700.500000	71.762861
699.000000	71.731827
697.500000	71.825200
696.000000	71.892695
694.500000	71.783804
693.000000	71.719004
691.500000	71.623133
690.000000	71.591419
688.500000	71.589454
687.000000	71.534822
685.500000	71.595644
684.000000	71.603333
682.500000	71.498347
681.000000	71.558188
679.500000	71.538626
678.000000	71.517502
676.500000	71.394344
675.000000	71.327647
673.500000	71.237626
672.000000	71.271350
670.500000	71.275963
669.000000	71.249293
667.500000	71.148304
666.000000	71.111303
664.500000	71.060268
663.000000	71.040103
661.500000	70.955927
660.000000	70.895796
658.500000	70.892699
657.000000	70.794852
655.500000	70.720236
654.000000	70.716887
652.500000	70.641922
651.000000	70.580146
649.500000	70.513353
648.000000	70.446153
646.500000	70.366801
645.000000	70.334510
643.500000	70.299100
642.000000	70.211225
640.500000	70.169077
639.000000	70.134977
637.500000	69.984172
636.000000	69.879401
634.500000	69.848628
633.000000	69.743981
631.500000	69.647286
630.000000	69.619424
628.500000	69.577720
627.000000	69.488312
625.500000	69.392347
624.000000	69.251666
622.500000	69.211946
621.000000	69.117842
619.500000	69.036583
618.000000	68.908622
616.500000	68.834458
615.000000	68.799634
613.500000	68.694940
612.000000	68.576222
610.500000	68.510081
609.000000	68.459540
607.500000	68.344505
606.000000	68.225392
604.500000	68.112982
603.000000	68.026715
601.500000	67.934647
600.000000	67.843806
598.500000	67.753953
597.000000	67.678560
595.500000	67.554809
594.000000	67.463359
592.500000	67.390348
591.000000	67.313529
589.500000	67.231032
588.000000	67.151185
586.500000	67.040117
585.000000	66.964894
583.500000	66.869552
582.000000	66.749803
580.500000	66.661602
579.000000	66.580894
577.500000	66.478967
576.000000	66.381564
574.500000	66.291566
573.000000	66.170785
571.500000	66.070407
570.000000	66.016738
568.500000	65.913055
567.000000	65.750500
565.500000	65.640023
564.000000	65.532669
562.500000	65.433182
561.000000	65.501692
559.500000	65.536722
558.000000	65.480026
556.500000	65.388358
555.000000	65.261731
553.500000	65.188094
552.000000	65.096073
550.500000	65.028270
549.000000	64.944991
547.500000	64.874148
546.000000	64.810412
544.500000	64.710254
543.000000	64.633812
541.500000	64.565953
540.000000	64.468710
538.500000	64.368706
537.000000	64.320668
535.500000	64.263730
534.000000	64.191731
532.500000	64.126822
531.000000	64.043944
529.500000	63.950186
528.000000	63.872383
526.500000	63.835132
525.000000	63.733911
523.500000	63.638121
522.000000	63.559692
520.500000	63.435235
519.000000	63.318437
517.500000	63.194071
516.000000	63.021798
514.500000	62.821035
513.000000	62.610175
511.500000	62.404201
510.000000	62.175473
508.500000	61.967149
507.000000	61.807644
505.500000	61.623566
504.000000	61.529941
502.500000	61.492699
501.000000	61.537934
499.500000	61.603241
498.000000	61.714736
496.500000	61.831609
495.000000	61.965767
493.500000	62.126054
492.000000	62.278595
490.500000	62.408094
489.000000	62.505674
487.500000	62.577064
486.000000	62.710509
484.500000	62.794656
483.000000	63.037844
481.500000	63.216104
480.000000	63.199660
478.500000	62.911149
477.000000	62.639918
475.500000	62.431716
474.000000	62.307815
472.500000	62.168803
471.000000	61.980575
469.500000	61.778625
468.000000	61.557825
466.500000	61.364857
465.000000	61.113435
463.500000	60.942536
462.000000	60.750346
460.500000	60.613791
459.000000	60.598207
457.500000	60.557670
456.000000	60.552948
454.500000	60.521389
453.000000	60.590406
451.500000	60.645118
450.000000	60.674881
448.500000	60.705462
447.000000	60.698659
445.500000	60.751919
444.000000	61.019449
442.500000	61.102551
441.000000	61.012191
439.500000	60.868137
438.000000	60.835694
436.500000	60.730080
435.000000	60.643675
433.500000	60.567541
432.000000	60.472916
430.500000	60.398530
429.000000	60.370658
427.500000	60.269869
426.000000	60.195706
424.500000	60.188726
423.000000	60.007061
421.500000	59.956870
420.000000	59.904237
418.500000	59.835074
417.000000	59.716375
415.500000	59.628463
414.000000	59.538525
412.500000	59.480723
411.000000	59.464086
409.500000	59.331270
408.000000	59.193607
406.500000	59.106807
405.000000	58.992810
403.500000	58.941906
402.000000	58.782023
400.500000	58.676200
399.000000	58.624624
397.500000	58.506312
396.000000	58.413255
394.500000	58.270284
393.000000	58.176362
391.500000	58.084335
390.000000	57.940068
388.500000	57.858475
387.000000	57.640839
385.500000	57.523207
384.000000	57.321619
382.500000	57.099110
381.000000	56.872285
379.500000	56.489848
378.000000	56.446835
376.500000	56.829034
375.000000	56.973994
373.500000	56.070316
372.000000	55.141348
370.500000	54.159950
369.000000	53.006226
367.500000	51.528827
366.000000	49.837195
364.500000	48.027327
363.000000	45.605906
361.500000	42.906010
360.000000	39.582697
358.500000	35.860461
357.000000	31.686229
355.500000	27.101078
354.000000	22.286494
352.500000	17.634387
351.000000	13.132452
349.500000	9.264720
348.000000	6.126649
346.500000	3.812289
345.000000	2.209133
343.500000	1.216091
342.000000	0.607144
340.500000	0.277833
339.000000	0.068803
337.500000	-0.004174
336.000000	-0.027490
334.500000	-0.025741
333.000000	-0.024295
331.500000	-0.032807
330.000000	-0.023967
328.500000	-0.022641
327.000000	-0.020516
325.500000	-0.022422
324.000000	-0.020373
322.500000	-0.024558
321.000000	-0.023759
319.500000	-0.019572
318.000000	0.003860
316.500000	-0.022758
315.000000	-0.025305
313.500000	-0.025625
312.000000	-0.027028
310.500000	-0.022067
309.000000	-0.019824
307.500000	-0.013905
306.000000	-0.005020
304.500000	-0.008364
303.000000	-0.006274
301.500000	-0.014175
300.000000	-0.009138
