PE UV       SUBTECH     SPECTRUM    ASCII       PEDS        4.00        
   -1
Sample258.Sample.Raw.asc
21/02/10
16:14:34.00
21/02/10
16:14:34.00
Administrator

300.000000
1
Lambda 850
850L1710193
PerkinElmer UV WinLab 6.4.0.973 / 2.02.06 Lambda 800 UV/VIS, Jan 28 2016 16:58:34

0
0
2
0
0
UV/VIS
1
1
1
RBeamAtt,SBeamAtt,60mm sphere
0
0
0
0
Fix
 
0
0.2
0
0
0
 
 
 
0
 
0
319.2
0
Front
100
 
S:100 R:100
 
0
0
0
 
0
 
 
 
0
 
 
0
0
0
0
0
 
 
 
 
0
0


0
0
#HDR
-1
-1
#GR
nm
%T
1.0
0.0
750.000000
-1.500000
301
8
72.491275
-0.034967
#DATA
750.000000	72.134378
748.500000	72.491275
747.000000	72.271217
745.500000	72.291996
744.000000	72.086498
742.500000	72.274111
741.000000	72.205378
739.500000	72.211304
738.000000	71.974822
736.500000	71.989118
735.000000	72.137736
733.500000	71.946526
732.000000	71.892376
730.500000	71.919481
729.000000	71.940374
727.500000	71.864171
726.000000	71.817461
724.500000	71.875135
723.000000	71.707589
721.500000	71.711895
720.000000	71.674633
718.500000	71.607874
717.000000	71.595034
715.500000	71.558409
714.000000	71.580588
712.500000	71.408227
711.000000	71.458631
709.500000	71.432825
708.000000	71.344486
706.500000	71.241092
705.000000	71.238888
703.500000	71.150669
702.000000	71.079555
700.500000	71.107997
699.000000	71.160191
697.500000	71.029285
696.000000	71.037184
694.500000	70.962446
693.000000	70.931614
691.500000	70.751413
690.000000	70.640647
688.500000	70.841096
687.000000	70.871804
685.500000	70.731264
684.000000	70.586301
682.500000	70.513159
681.000000	70.446670
679.500000	70.427712
678.000000	70.357905
676.500000	70.295070
675.000000	70.258629
673.500000	70.139556
672.000000	70.021432
670.500000	70.014076
669.000000	69.898877
667.500000	69.752975
666.000000	69.719949
664.500000	69.660007
663.000000	69.493234
661.500000	69.416689
660.000000	69.269015
658.500000	69.245465
657.000000	69.048198
655.500000	68.945469
654.000000	68.864100
652.500000	68.794430
651.000000	68.717929
649.500000	68.534119
648.000000	68.428266
646.500000	68.233192
645.000000	68.116504
643.500000	67.980054
642.000000	67.879194
640.500000	67.660384
639.000000	67.548811
637.500000	67.397825
636.000000	67.272553
634.500000	67.086683
633.000000	66.877605
631.500000	66.747833
630.000000	66.610898
628.500000	66.473931
627.000000	66.321873
625.500000	66.196546
624.000000	66.015849
622.500000	65.821015
621.000000	65.667878
619.500000	65.449351
618.000000	65.285483
616.500000	65.142632
615.000000	64.959174
613.500000	64.770762
612.000000	64.609426
610.500000	64.433149
609.000000	64.244436
607.500000	64.040309
606.000000	63.843298
604.500000	63.661777
603.000000	63.506378
601.500000	63.315043
600.000000	63.108514
598.500000	62.943324
597.000000	62.766679
595.500000	62.569775
594.000000	62.351392
592.500000	62.182075
591.000000	62.019588
589.500000	61.837745
588.000000	61.627112
586.500000	61.452787
585.000000	61.244882
583.500000	61.047161
582.000000	60.880400
580.500000	60.722211
579.000000	60.532451
577.500000	60.343316
576.000000	60.139321
574.500000	59.947406
573.000000	59.792689
571.500000	59.635357
570.000000	59.415629
568.500000	59.196030
567.000000	59.031399
565.500000	58.851472
564.000000	58.645941
562.500000	58.497347
561.000000	58.464186
559.500000	58.410398
558.000000	58.275937
556.500000	58.121178
555.000000	57.963439
553.500000	57.812841
552.000000	57.680900
550.500000	57.529115
549.000000	57.352832
547.500000	57.214235
546.000000	57.081672
544.500000	56.955773
543.000000	56.854278
541.500000	56.709927
540.000000	56.575205
538.500000	56.459405
537.000000	56.338983
535.500000	56.238982
534.000000	56.109061
532.500000	55.985988
531.000000	55.880876
529.500000	55.764173
528.000000	55.643025
526.500000	55.526702
525.000000	55.389980
523.500000	55.233159
522.000000	55.077483
520.500000	54.909609
519.000000	54.718399
517.500000	54.529395
516.000000	54.285598
514.500000	53.977925
513.000000	53.660999
511.500000	53.356482
510.000000	52.981854
508.500000	52.621181
507.000000	52.277946
505.500000	51.918948
504.000000	51.570710
502.500000	51.283701
501.000000	51.031299
499.500000	50.793042
498.000000	50.559853
496.500000	50.341192
495.000000	50.185177
493.500000	50.017189
492.000000	49.857980
490.500000	49.783382
489.000000	49.757223
487.500000	49.723252
486.000000	49.752422
484.500000	49.859980
483.000000	50.117658
481.500000	50.429987
480.000000	50.545847
478.500000	50.398640
477.000000	50.186975
475.500000	50.031877
474.000000	49.895005
472.500000	49.741915
471.000000	49.607780
469.500000	49.374404
468.000000	49.106411
466.500000	48.816654
465.000000	48.523437
463.500000	48.222613
462.000000	47.957251
460.500000	47.660408
459.000000	47.419849
457.500000	47.168727
456.000000	47.009559
454.500000	46.814559
453.000000	46.659654
451.500000	46.487993
450.000000	46.364423
448.500000	46.222634
447.000000	46.038356
445.500000	45.907205
444.000000	45.959244
442.500000	45.998151
441.000000	45.819334
439.500000	45.673958
438.000000	45.567653
436.500000	45.414829
435.000000	45.265798
433.500000	45.157384
432.000000	45.050772
430.500000	44.914748
429.000000	44.807435
427.500000	44.685271
426.000000	44.512147
424.500000	44.428020
423.000000	44.335465
421.500000	44.215528
420.000000	44.122705
418.500000	44.006618
417.000000	43.883352
415.500000	43.848145
414.000000	43.689064
412.500000	43.578208
411.000000	43.459013
409.500000	43.385087
408.000000	43.282913
406.500000	43.134131
405.000000	43.090899
403.500000	42.989345
402.000000	42.902741
400.500000	42.792955
399.000000	42.705050
397.500000	42.585913
396.000000	42.516017
394.500000	42.450296
393.000000	42.340810
391.500000	42.295671
390.000000	42.169283
388.500000	42.099645
387.000000	41.983897
385.500000	41.930211
384.000000	41.810970
382.500000	41.703396
381.000000	41.534462
379.500000	41.405927
378.000000	41.342299
376.500000	41.783593
375.000000	41.854079
373.500000	41.389827
372.000000	40.837503
370.500000	40.349450
369.000000	39.693259
367.500000	39.012040
366.000000	38.219772
364.500000	37.109548
363.000000	35.894225
361.500000	34.356372
360.000000	32.513500
358.500000	30.412294
357.000000	27.997146
355.500000	25.176138
354.000000	21.993155
352.500000	18.740128
351.000000	15.277053
349.500000	11.924479
348.000000	8.816661
346.500000	6.086314
345.000000	3.858365
343.500000	2.214361
342.000000	1.126390
340.500000	0.487641
339.000000	0.196856
337.500000	0.075496
336.000000	0.040500
334.500000	0.039462
333.000000	0.038514
331.500000	0.044604
330.000000	0.042653
328.500000	0.056970
327.000000	0.044579
325.500000	0.035119
324.000000	0.034257
322.500000	0.044447
321.000000	0.040752
319.500000	0.047684
318.000000	-0.005571
316.500000	-0.025190
315.000000	-0.033020
313.500000	-0.034967
312.000000	-0.026908
310.500000	-0.024223
309.000000	-0.019442
307.500000	-0.017831
306.000000	-0.010651
304.500000	-0.007625
303.000000	-0.010791
301.500000	-0.016049
300.000000	-0.013286
