PE UV       SUBTECH     SPECTRUM    ASCII       PEDS        4.00        
   -1
Sample78.Sample.Raw.asc
20/12/16
16:18:24.00
20/12/16
16:18:24.00
Administrator

300.000000
1
Lambda 850
850L1710193
PerkinElmer UV WinLab 6.4.0.973 / 2.02.06 Lambda 800 UV/VIS, Jan 28 2016 16:58:34

0
0
2
0
0
UV/VIS
1
1
1
RBeamAtt,SBeamAtt,60mm sphere
0
0
0
0
Fix
 
0
0.2
0
0
0
 
 
 
0
 
0
319.2
0
Front
100
 
S:100 R:100
 
0
0
0
 
0
 
 
 
0
 
 
0
0
0
0
0
 
 
 
 
0
0


0
0
#HDR
-1
-1
#GR
nm
%T
1.0
0.0
750.000000
-1.500000
301
8
74.335985
-0.023932
#DATA
750.000000	73.897814
748.500000	74.335985
747.000000	74.204347
745.500000	74.301156
744.000000	74.143321
742.500000	74.161868
741.000000	74.238032
739.500000	74.078754
738.000000	74.220123
736.500000	74.144583
735.000000	74.047184
733.500000	74.066875
732.000000	74.135426
730.500000	74.016113
729.000000	74.043471
727.500000	74.079445
726.000000	74.125834
724.500000	74.107523
723.000000	74.101001
721.500000	74.090098
720.000000	74.056371
718.500000	73.896034
717.000000	74.004375
715.500000	73.857938
714.000000	74.028800
712.500000	73.961673
711.000000	73.887495
709.500000	73.890495
708.000000	74.005497
706.500000	73.833602
705.000000	73.898850
703.500000	73.801900
702.000000	73.865283
700.500000	73.978142
699.000000	73.759668
697.500000	73.715039
696.000000	73.869008
694.500000	73.787220
693.000000	73.850430
691.500000	73.735085
690.000000	73.612110
688.500000	73.824622
687.000000	73.759718
685.500000	73.646250
684.000000	73.665343
682.500000	73.617545
681.000000	73.727991
679.500000	73.780169
678.000000	73.671145
676.500000	73.621348
675.000000	73.699615
673.500000	73.713090
672.000000	73.594569
670.500000	73.625359
669.000000	73.673038
667.500000	73.619794
666.000000	73.519016
664.500000	73.588177
663.000000	73.569434
661.500000	73.532525
660.000000	73.545318
658.500000	73.468454
657.000000	73.459877
655.500000	73.500391
654.000000	73.501638
652.500000	73.502974
651.000000	73.438953
649.500000	73.425048
648.000000	73.395246
646.500000	73.375769
645.000000	73.353842
643.500000	73.317002
642.000000	73.354775
640.500000	73.309709
639.000000	73.302591
637.500000	73.285016
636.000000	73.259262
634.500000	73.246611
633.000000	73.264303
631.500000	73.251055
630.000000	73.228036
628.500000	73.163777
627.000000	73.199927
625.500000	73.209895
624.000000	73.126018
622.500000	73.157372
621.000000	73.206744
619.500000	73.176966
618.000000	73.123055
616.500000	73.098069
615.000000	73.080892
613.500000	73.024537
612.000000	72.991930
610.500000	72.974820
609.000000	72.984751
607.500000	72.943889
606.000000	72.920355
604.500000	72.954464
603.000000	72.907634
601.500000	72.849628
600.000000	72.827361
598.500000	72.803650
597.000000	72.796718
595.500000	72.769026
594.000000	72.731712
592.500000	72.742501
591.000000	72.712734
589.500000	72.694992
588.000000	72.700047
586.500000	72.677104
585.000000	72.623831
583.500000	72.576767
582.000000	72.555349
580.500000	72.550192
579.000000	72.542610
577.500000	72.532175
576.000000	72.520291
574.500000	72.513147
573.000000	72.465193
571.500000	72.400282
570.000000	72.371998
568.500000	72.360066
567.000000	72.303230
565.500000	72.253570
564.000000	72.229233
562.500000	72.199081
561.000000	72.352125
559.500000	72.458769
558.000000	72.385369
556.500000	72.370245
555.000000	72.370508
553.500000	72.328385
552.000000	72.314995
550.500000	72.302535
549.000000	72.259277
547.500000	72.235078
546.000000	72.212982
544.500000	72.203288
543.000000	72.192740
541.500000	72.149015
540.000000	72.122848
538.500000	72.141025
537.000000	72.123944
535.500000	72.096841
534.000000	72.102454
532.500000	72.067168
531.000000	72.032676
529.500000	72.002744
528.000000	72.008270
526.500000	71.969722
525.000000	71.903822
523.500000	71.842469
522.000000	71.782349
520.500000	71.706836
519.000000	71.576897
517.500000	71.460274
516.000000	71.304429
514.500000	71.099225
513.000000	70.878631
511.500000	70.644576
510.000000	70.437370
508.500000	70.185242
507.000000	69.948109
505.500000	69.791491
504.000000	69.695491
502.500000	69.626469
501.000000	69.587407
499.500000	69.597827
498.000000	69.710792
496.500000	69.803559
495.000000	69.877883
493.500000	70.054569
492.000000	70.221346
490.500000	70.341318
489.000000	70.421323
487.500000	70.560579
486.000000	70.704801
484.500000	70.860056
483.000000	71.164730
481.500000	71.518693
480.000000	71.560340
478.500000	71.239941
477.000000	70.977191
475.500000	70.827933
474.000000	70.654317
472.500000	70.515566
471.000000	70.369242
469.500000	70.148053
468.000000	69.896785
466.500000	69.601459
465.000000	69.341963
463.500000	69.126262
462.000000	68.947318
460.500000	68.775070
459.000000	68.694663
457.500000	68.611205
456.000000	68.566931
454.500000	68.562367
453.000000	68.611752
451.500000	68.606423
450.000000	68.599866
448.500000	68.614352
447.000000	68.621264
445.500000	68.747556
444.000000	69.028761
442.500000	69.133866
441.000000	68.997406
439.500000	68.964721
438.000000	68.838421
436.500000	68.738306
435.000000	68.640082
433.500000	68.565109
432.000000	68.516671
430.500000	68.437404
429.000000	68.391809
427.500000	68.326435
426.000000	68.202808
424.500000	68.138317
423.000000	68.021551
421.500000	67.972394
420.000000	67.925360
418.500000	67.901215
417.000000	67.834034
415.500000	67.645973
414.000000	67.555125
412.500000	67.464207
411.000000	67.455141
409.500000	67.317429
408.000000	67.124288
406.500000	67.076959
405.000000	66.966226
403.500000	66.815564
402.000000	66.663337
400.500000	66.583237
399.000000	66.417733
397.500000	66.317549
396.000000	66.156716
394.500000	66.014163
393.000000	65.903971
391.500000	65.776021
390.000000	65.587737
388.500000	65.351567
387.000000	65.183379
385.500000	64.981169
384.000000	64.724873
382.500000	64.406924
381.000000	64.086004
379.500000	63.649234
378.000000	63.546230
376.500000	63.927025
375.000000	63.668017
373.500000	62.770547
372.000000	61.627637
370.500000	60.509892
369.000000	59.066142
367.500000	57.209961
366.000000	55.193930
364.500000	52.747250
363.000000	50.001414
361.500000	46.735108
360.000000	42.972097
358.500000	38.672387
357.000000	33.795106
355.500000	28.689389
354.000000	23.412187
352.500000	18.199165
351.000000	13.437247
349.500000	9.356227
348.000000	6.109649
346.500000	3.755986
345.000000	2.143936
343.500000	1.159060
342.000000	0.585219
340.500000	0.266059
339.000000	0.127513
337.500000	0.074234
336.000000	0.061555
334.500000	0.046999
333.000000	0.066009
331.500000	0.055195
330.000000	0.066728
328.500000	0.059217
327.000000	0.057356
325.500000	0.053642
324.000000	0.065013
322.500000	0.062495
321.000000	0.056334
319.500000	0.051161
318.000000	0.011752
316.500000	-0.023932
315.000000	-0.023374
313.500000	-0.020862
312.000000	-0.017041
310.500000	-0.021205
309.000000	-0.016496
307.500000	-0.000945
306.000000	-0.002460
304.500000	-0.001802
303.000000	-0.000569
301.500000	-0.003516
300.000000	-0.005327
