PE UV       SUBTECH     SPECTRUM    ASCII       PEDS        4.00        
   -1
Sample15.Sample.Raw.asc
21/03/30
11:52:33.00
21/03/30
11:52:33.00
Administrator

300.000000
1
Lambda 850
850L1710193
PerkinElmer UV WinLab 6.4.0.973 / 2.02.06 Lambda 800 UV/VIS, Jan 28 2016 16:58:34

0
0
2
0
0
UV/VIS
1
1
1
RBeamAtt,SBeamAtt,60mm sphere
0
0
0
0
Fix
 
0
0.2
0
0
0
 
 
 
0
 
0
340
0
Front
100
 
S:100 R:100
 
0
0
0
 
0
 
 
 
0
 
 
0
0
0
0
0
 
 
 
 
0
0


0
0
#HDR
-1
-1
#GR
nm
%T
1.0
0.0
750.000000
-1.500000
301
8
72.921202
-0.029488
#DATA
750.000000	72.375095
748.500000	72.669528
747.000000	72.921202
745.500000	72.757727
744.000000	72.674067
742.500000	72.688820
741.000000	72.556619
739.500000	72.474426
738.000000	72.635824
736.500000	72.533169
735.000000	72.544619
733.500000	72.582547
732.000000	72.632352
730.500000	72.626757
729.000000	72.424040
727.500000	72.493090
726.000000	72.407123
724.500000	72.320169
723.000000	72.432655
721.500000	72.457235
720.000000	72.325047
718.500000	72.343039
717.000000	72.218024
715.500000	72.301023
714.000000	72.357589
712.500000	72.284068
711.000000	72.243790
709.500000	72.212362
708.000000	72.154757
706.500000	72.044394
705.000000	72.057352
703.500000	71.979076
702.000000	72.082188
700.500000	71.934408
699.000000	71.929902
697.500000	71.921344
696.000000	71.980115
694.500000	71.842070
693.000000	71.806870
691.500000	71.808993
690.000000	71.689659
688.500000	71.726922
687.000000	71.644274
685.500000	71.645738
684.000000	71.658634
682.500000	71.571084
681.000000	71.592041
679.500000	71.535099
678.000000	71.497397
676.500000	71.429122
675.000000	71.375871
673.500000	71.283784
672.000000	71.214821
670.500000	71.243034
669.000000	71.219147
667.500000	71.146087
666.000000	71.013971
664.500000	70.960415
663.000000	70.957795
661.500000	70.895132
660.000000	70.844604
658.500000	70.716862
657.000000	70.671127
655.500000	70.670899
654.000000	70.648119
652.500000	70.509025
651.000000	70.404137
649.500000	70.313850
648.000000	70.257530
646.500000	70.160737
645.000000	70.099184
643.500000	70.035801
642.000000	69.894330
640.500000	69.881307
639.000000	69.837583
637.500000	69.669582
636.000000	69.519844
634.500000	69.499411
633.000000	69.403755
631.500000	69.271618
630.000000	69.156965
628.500000	69.097977
627.000000	69.005271
625.500000	68.914808
624.000000	68.796557
622.500000	68.688479
621.000000	68.597645
619.500000	68.470459
618.000000	68.345247
616.500000	68.259194
615.000000	68.203660
613.500000	68.042983
612.000000	67.907773
610.500000	67.800957
609.000000	67.719526
607.500000	67.592998
606.000000	67.441876
604.500000	67.320046
603.000000	67.197168
601.500000	67.133583
600.000000	67.023569
598.500000	66.880378
597.000000	66.732474
595.500000	66.621847
594.000000	66.458396
592.500000	66.339406
591.000000	66.255102
589.500000	66.164993
588.000000	66.068018
586.500000	65.949168
585.000000	65.801138
583.500000	65.673540
582.000000	65.554358
580.500000	65.418855
579.000000	65.305618
577.500000	65.139301
576.000000	64.971242
574.500000	64.889315
573.000000	64.773027
571.500000	64.626872
570.000000	64.480323
568.500000	64.322456
567.000000	64.186012
565.500000	64.073822
564.000000	63.923065
562.500000	63.779117
561.000000	63.796353
559.500000	63.803647
558.000000	63.717374
556.500000	63.576092
555.000000	63.435649
553.500000	63.346347
552.000000	63.217867
550.500000	63.077617
549.000000	62.947993
547.500000	62.834430
546.000000	62.725811
544.500000	62.614409
543.000000	62.497832
541.500000	62.390183
540.000000	62.244959
538.500000	62.117176
537.000000	62.039548
535.500000	61.938310
534.000000	61.815364
532.500000	61.715116
531.000000	61.598621
529.500000	61.481361
528.000000	61.360814
526.500000	61.257615
525.000000	61.157561
523.500000	61.022813
522.000000	60.867044
520.500000	60.734645
519.000000	60.584859
517.500000	60.411217
516.000000	60.211215
514.500000	59.987171
513.000000	59.742472
511.500000	59.504244
510.000000	59.279348
508.500000	59.062707
507.000000	58.862766
505.500000	58.674316
504.000000	58.554835
502.500000	58.497916
501.000000	58.512385
499.500000	58.543803
498.000000	58.618618
496.500000	58.724257
495.000000	58.843020
493.500000	58.967190
492.000000	59.078021
490.500000	59.130682
489.000000	59.230430
487.500000	59.283465
486.000000	59.334203
484.500000	59.401781
483.000000	59.547115
481.500000	59.661516
480.000000	59.594635
478.500000	59.255029
477.000000	58.991407
475.500000	58.768536
474.000000	58.617797
472.500000	58.417354
471.000000	58.210557
469.500000	58.001483
468.000000	57.753248
466.500000	57.516509
465.000000	57.237805
463.500000	57.061727
462.000000	56.854364
460.500000	56.728309
459.000000	56.656138
457.500000	56.596249
456.000000	56.555888
454.500000	56.525358
453.000000	56.524035
451.500000	56.541773
450.000000	56.559043
448.500000	56.555329
447.000000	56.576937
445.500000	56.530684
444.000000	56.758575
442.500000	56.796239
441.000000	56.680006
439.500000	56.515942
438.000000	56.463705
436.500000	56.313590
435.000000	56.243428
433.500000	56.078098
432.000000	56.001243
430.500000	55.910564
429.000000	55.848483
427.500000	55.746474
426.000000	55.675443
424.500000	55.581028
423.000000	55.422826
421.500000	55.373452
420.000000	55.293951
418.500000	55.162638
417.000000	55.097525
415.500000	54.965308
414.000000	54.910332
412.500000	54.820284
411.000000	54.717294
409.500000	54.546280
408.000000	54.517818
406.500000	54.419966
405.000000	54.260148
403.500000	54.206225
402.000000	54.083344
400.500000	53.987984
399.000000	53.874544
397.500000	53.790214
396.000000	53.651766
394.500000	53.594456
393.000000	53.509440
391.500000	53.343622
390.000000	53.210817
388.500000	53.104592
387.000000	52.888657
385.500000	52.752694
384.000000	52.534500
382.500000	52.381547
381.000000	52.138179
379.500000	51.834275
378.000000	51.867939
376.500000	52.063801
375.000000	52.102139
373.500000	51.334238
372.000000	50.485283
370.500000	49.561130
369.000000	48.415699
367.500000	47.137009
366.000000	45.705066
364.500000	43.848220
363.000000	41.743798
361.500000	39.263277
360.000000	36.241138
358.500000	32.835892
357.000000	29.021420
355.500000	24.886784
354.000000	20.460000
352.500000	16.216829
351.000000	12.153293
349.500000	8.588254
348.000000	5.712915
346.500000	3.582885
345.000000	2.103474
343.500000	1.166183
342.000000	0.598436
340.500000	0.281264
339.000000	0.064254
337.500000	-0.003154
336.000000	-0.023125
334.500000	-0.022117
333.000000	-0.022898
331.500000	-0.023301
330.000000	-0.020423
328.500000	-0.025437
327.000000	-0.026112
325.500000	-0.026439
324.000000	-0.023364
322.500000	-0.025212
321.000000	-0.024507
319.500000	-0.022944
318.000000	-0.000094
316.500000	-0.026237
315.000000	-0.023988
313.500000	-0.029488
312.000000	-0.029477
310.500000	-0.027725
309.000000	-0.021429
307.500000	-0.017026
306.000000	-0.009093
304.500000	-0.004657
303.000000	-0.012262
301.500000	-0.012272
300.000000	-0.013516
