PE UV       SUBTECH     SPECTRUM    ASCII       PEDS        4.00        
   -1
Sample156.Sample.Raw.asc
21/01/27
12:30:53.00
21/01/27
12:30:53.00
Administrator

300.000000
1
Lambda 850
850L1710193
PerkinElmer UV WinLab 6.4.0.973 / 2.02.06 Lambda 800 UV/VIS, Jan 28 2016 16:58:34

0
0
2
0
0
UV/VIS
1
1
1
RBeamAtt,SBeamAtt,60mm sphere
0
0
0
0
Fix
 
0
0.2
0
0
0
 
 
 
0
 
0
319.2
0
Front
100
 
S:100 R:100
 
0
0
0
 
0
 
 
 
0
 
 
0
0
0
0
0
 
 
 
 
0
0


0
0
#HDR
-1
-1
#GR
nm
%T
1.0
0.0
750.000000
-1.500000
301
8
73.995182
-0.028163
#DATA
750.000000	73.679494
748.500000	73.856045
747.000000	73.979043
745.500000	73.995182
744.000000	73.714644
742.500000	73.779039
741.000000	73.827674
739.500000	73.983278
738.000000	73.731448
736.500000	73.860994
735.000000	73.690313
733.500000	73.713164
732.000000	73.762022
730.500000	73.580174
729.000000	73.606621
727.500000	73.602467
726.000000	73.672977
724.500000	73.634294
723.000000	73.574830
721.500000	73.491357
720.000000	73.656971
718.500000	73.607582
717.000000	73.406144
715.500000	73.514057
714.000000	73.531116
712.500000	73.322783
711.000000	73.386758
709.500000	73.369006
708.000000	73.428560
706.500000	73.359971
705.000000	73.278494
703.500000	73.318274
702.000000	73.273932
700.500000	73.244497
699.000000	73.236437
697.500000	73.222784
696.000000	73.201115
694.500000	73.237716
693.000000	73.168477
691.500000	73.234272
690.000000	72.932490
688.500000	73.068832
687.000000	73.159065
685.500000	73.180029
684.000000	73.062824
682.500000	73.032767
681.000000	72.979683
679.500000	72.958349
678.000000	73.023362
676.500000	72.934960
675.000000	72.885280
673.500000	72.890527
672.000000	72.803681
670.500000	72.790914
669.000000	72.842719
667.500000	72.806986
666.000000	72.701404
664.500000	72.726188
663.000000	72.597454
661.500000	72.535102
660.000000	72.548882
658.500000	72.543347
657.000000	72.486900
655.500000	72.425989
654.000000	72.393871
652.500000	72.333151
651.000000	72.305145
649.500000	72.202191
648.000000	72.164117
646.500000	72.201919
645.000000	72.131741
643.500000	72.087123
642.000000	72.000538
640.500000	71.923422
639.000000	71.834607
637.500000	71.830765
636.000000	71.762563
634.500000	71.754344
633.000000	71.693992
631.500000	71.573669
630.000000	71.566290
628.500000	71.433890
627.000000	71.386383
625.500000	71.364158
624.000000	71.316148
622.500000	71.274853
621.000000	71.131985
619.500000	71.058393
618.000000	71.017462
616.500000	71.004339
615.000000	70.903836
613.500000	70.842415
612.000000	70.798267
610.500000	70.718956
609.000000	70.636734
607.500000	70.582834
606.000000	70.498221
604.500000	70.443596
603.000000	70.388795
601.500000	70.291245
600.000000	70.198298
598.500000	70.144327
597.000000	70.104303
595.500000	70.063585
594.000000	69.963103
592.500000	69.919953
591.000000	69.832184
589.500000	69.721058
588.000000	69.708335
586.500000	69.689910
585.000000	69.590592
583.500000	69.469768
582.000000	69.420252
580.500000	69.379848
579.000000	69.318279
577.500000	69.233574
576.000000	69.161522
574.500000	69.073554
573.000000	69.002425
571.500000	68.983611
570.000000	68.905467
568.500000	68.796760
567.000000	68.736057
565.500000	68.667968
564.000000	68.585692
562.500000	68.559507
561.000000	68.655620
559.500000	68.739933
558.000000	68.697689
556.500000	68.617371
555.000000	68.564585
553.500000	68.526741
552.000000	68.493246
550.500000	68.434521
549.000000	68.351928
547.500000	68.313908
546.000000	68.294246
544.500000	68.258552
543.000000	68.242442
541.500000	68.235368
540.000000	68.186586
538.500000	68.142531
537.000000	68.114995
535.500000	68.077566
534.000000	68.027452
532.500000	68.027505
531.000000	68.018440
529.500000	67.997974
528.000000	67.980369
526.500000	67.933324
525.000000	67.898127
523.500000	67.843358
522.000000	67.744077
520.500000	67.624750
519.000000	67.535179
517.500000	67.415967
516.000000	67.234931
514.500000	67.011048
513.000000	66.783581
511.500000	66.514300
510.000000	66.247553
508.500000	65.989861
507.000000	65.711011
505.500000	65.473318
504.000000	65.237978
502.500000	65.091867
501.000000	64.992987
499.500000	64.932786
498.000000	64.879491
496.500000	64.861586
495.000000	64.801787
493.500000	64.845150
492.000000	64.957425
490.500000	64.979330
489.000000	65.061202
487.500000	65.200085
486.000000	65.313875
484.500000	65.464607
483.000000	65.846787
481.500000	66.248998
480.000000	66.415167
478.500000	66.243084
477.000000	66.052094
475.500000	65.916206
474.000000	65.810270
472.500000	65.672119
471.000000	65.520688
469.500000	65.364425
468.000000	65.124020
466.500000	64.838713
465.000000	64.604086
463.500000	64.317786
462.000000	64.078690
460.500000	63.890028
459.000000	63.746156
457.500000	63.609847
456.000000	63.519250
454.500000	63.418995
453.000000	63.422299
451.500000	63.311212
450.000000	63.233901
448.500000	63.149154
447.000000	63.105139
445.500000	63.089205
444.000000	63.300300
442.500000	63.399292
441.000000	63.321658
439.500000	63.270590
438.000000	63.142721
436.500000	63.043841
435.000000	62.910952
433.500000	62.855252
432.000000	62.758323
430.500000	62.684557
429.000000	62.596822
427.500000	62.452743
426.000000	62.372111
424.500000	62.259668
423.000000	62.234600
421.500000	62.180357
420.000000	62.078024
418.500000	61.989136
417.000000	61.863547
415.500000	61.785140
414.000000	61.679083
412.500000	61.571599
411.000000	61.489676
409.500000	61.329458
408.000000	61.274360
406.500000	61.135092
405.000000	60.964678
403.500000	60.899262
402.000000	60.774189
400.500000	60.722600
399.000000	60.584079
397.500000	60.520266
396.000000	60.350470
394.500000	60.204453
393.000000	59.987724
391.500000	59.995692
390.000000	59.784973
388.500000	59.620809
387.000000	59.481285
385.500000	59.312866
384.000000	59.163252
382.500000	58.857057
381.000000	58.706295
379.500000	58.422770
378.000000	58.277827
376.500000	58.658783
375.000000	58.858135
373.500000	58.065135
372.000000	57.294940
370.500000	56.459521
369.000000	55.542110
367.500000	54.443372
366.000000	53.194042
364.500000	51.585329
363.000000	49.843664
361.500000	47.715389
360.000000	45.169817
358.500000	42.311857
357.000000	38.825434
355.500000	34.920226
354.000000	30.719835
352.500000	26.195024
351.000000	21.463752
349.500000	16.850444
348.000000	12.574865
346.500000	8.772814
345.000000	5.668406
343.500000	3.311124
342.000000	1.699607
340.500000	0.751818
339.000000	0.293844
337.500000	0.104881
336.000000	0.055198
334.500000	0.037318
333.000000	0.046297
331.500000	0.046340
330.000000	0.042723
328.500000	0.040003
327.000000	0.044356
325.500000	0.044325
324.000000	0.046452
322.500000	0.048943
321.000000	0.049298
319.500000	0.047577
318.000000	0.005569
316.500000	-0.024841
315.000000	-0.027947
313.500000	-0.028163
312.000000	-0.021700
310.500000	-0.023792
309.000000	-0.017776
307.500000	-0.014680
306.000000	-0.010629
304.500000	-0.003993
303.000000	-0.005521
301.500000	-0.010386
300.000000	-0.009644
