PE UV       SUBTECH     SPECTRUM    ASCII       PEDS        4.00        
   -1
Sample118.Sample.Raw.asc
20/12/17
15:56:21.00
20/12/17
15:56:21.00
Administrator

300.000000
1
Lambda 850
850L1710193
PerkinElmer UV WinLab 6.4.0.973 / 2.02.06 Lambda 800 UV/VIS, Jan 28 2016 16:58:34

0
0
2
0
0
UV/VIS
1
1
1
RBeamAtt,SBeamAtt,60mm sphere
0
0
0
0
Fix
 
0
0.2
0
0
0
 
 
 
0
 
0
319.2
0
Front
100
 
S:100 R:100
 
0
0
0
 
0
 
 
 
0
 
 
0
0
0
0
0
 
 
 
 
0
0


0
0
#HDR
-1
-1
#GR
nm
%T
1.0
0.0
750.000000
-1.500000
301
8
75.867188
-0.022846
#DATA
750.000000	75.436128
748.500000	75.768892
747.000000	75.691817
745.500000	75.779329
744.000000	75.867188
742.500000	75.642289
741.000000	75.670742
739.500000	75.713151
738.000000	75.445179
736.500000	75.550505
735.000000	75.633935
733.500000	75.652115
732.000000	75.800353
730.500000	75.521144
729.000000	75.592830
727.500000	75.592127
726.000000	75.582154
724.500000	75.603817
723.000000	75.685660
721.500000	75.635992
720.000000	75.529524
718.500000	75.462820
717.000000	75.610339
715.500000	75.455601
714.000000	75.562695
712.500000	75.537347
711.000000	75.601162
709.500000	75.457625
708.000000	75.489007
706.500000	75.601401
705.000000	75.485684
703.500000	75.530680
702.000000	75.465769
700.500000	75.514409
699.000000	75.392852
697.500000	75.467033
696.000000	75.363957
694.500000	75.395701
693.000000	75.333488
691.500000	75.303568
690.000000	75.217832
688.500000	75.338149
687.000000	75.364198
685.500000	75.416381
684.000000	75.358165
682.500000	75.340073
681.000000	75.252934
679.500000	75.214047
678.000000	75.326392
676.500000	75.367345
675.000000	75.357282
673.500000	75.157944
672.000000	75.204837
670.500000	75.274923
669.000000	75.153674
667.500000	75.175520
666.000000	75.227373
664.500000	75.148801
663.000000	75.185535
661.500000	75.193337
660.000000	75.153432
658.500000	75.168392
657.000000	75.147937
655.500000	75.139926
654.000000	75.123737
652.500000	75.097329
651.000000	75.094036
649.500000	75.057138
648.000000	74.994636
646.500000	75.025783
645.000000	75.057574
643.500000	75.026611
642.000000	75.032875
640.500000	75.005391
639.000000	75.010103
637.500000	74.966210
636.000000	74.974293
634.500000	74.960854
633.000000	74.909812
631.500000	74.930344
630.000000	74.946990
628.500000	74.935151
627.000000	74.888996
625.500000	74.868820
624.000000	74.881025
622.500000	74.799542
621.000000	74.825061
619.500000	74.889600
618.000000	74.807186
616.500000	74.799031
615.000000	74.767093
613.500000	74.727805
612.000000	74.730978
610.500000	74.726694
609.000000	74.753516
607.500000	74.745668
606.000000	74.653708
604.500000	74.657169
603.000000	74.702318
601.500000	74.690340
600.000000	74.669592
598.500000	74.644080
597.000000	74.619977
595.500000	74.552904
594.000000	74.572217
592.500000	74.559604
591.000000	74.555335
589.500000	74.591147
588.000000	74.537617
586.500000	74.507299
585.000000	74.469152
583.500000	74.485435
582.000000	74.507452
580.500000	74.447187
579.000000	74.430098
577.500000	74.412224
576.000000	74.393703
574.500000	74.383224
573.000000	74.340903
571.500000	74.320092
570.000000	74.342415
568.500000	74.306549
567.000000	74.261660
565.500000	74.229621
564.000000	74.210655
562.500000	74.229099
561.000000	74.385269
559.500000	74.503643
558.000000	74.485399
556.500000	74.488954
555.000000	74.471407
553.500000	74.437665
552.000000	74.460645
550.500000	74.462011
549.000000	74.441112
547.500000	74.446793
546.000000	74.472647
544.500000	74.453578
543.000000	74.434970
541.500000	74.446887
540.000000	74.433801
538.500000	74.419744
537.000000	74.429622
535.500000	74.455381
534.000000	74.468791
532.500000	74.450015
531.000000	74.461402
529.500000	74.483024
528.000000	74.477982
526.500000	74.468849
525.000000	74.464596
523.500000	74.445278
522.000000	74.382012
520.500000	74.327456
519.000000	74.248559
517.500000	74.138971
516.000000	73.973522
514.500000	73.789116
513.000000	73.569690
511.500000	73.319470
510.000000	73.078536
508.500000	72.837510
507.000000	72.593460
505.500000	72.400545
504.000000	72.260467
502.500000	72.164122
501.000000	72.107493
499.500000	72.077990
498.000000	72.118605
496.500000	72.206135
495.000000	72.293871
493.500000	72.331984
492.000000	72.449212
490.500000	72.617908
489.000000	72.830431
487.500000	72.977056
486.000000	73.087752
484.500000	73.367466
483.000000	73.702220
481.500000	74.070001
480.000000	74.265343
478.500000	74.076732
477.000000	73.886743
475.500000	73.774064
474.000000	73.656928
472.500000	73.526355
471.000000	73.367436
469.500000	73.178802
468.000000	72.965102
466.500000	72.716399
465.000000	72.456721
463.500000	72.210826
462.000000	72.000652
460.500000	71.877351
459.000000	71.745570
457.500000	71.624760
456.000000	71.605864
454.500000	71.553081
453.000000	71.605209
451.500000	71.572951
450.000000	71.582069
448.500000	71.636280
447.000000	71.622365
445.500000	71.652010
444.000000	71.903863
442.500000	72.116855
441.000000	71.945865
439.500000	71.912317
438.000000	71.849542
436.500000	71.755681
435.000000	71.782257
433.500000	71.641451
432.000000	71.613751
430.500000	71.618827
429.000000	71.467957
427.500000	71.401777
426.000000	71.428608
424.500000	71.383313
423.000000	71.311648
421.500000	71.227752
420.000000	71.167618
418.500000	71.079443
417.000000	71.085339
415.500000	71.000856
414.000000	70.911359
412.500000	70.779544
411.000000	70.853974
409.500000	70.706061
408.000000	70.674030
406.500000	70.532301
405.000000	70.429918
403.500000	70.358915
402.000000	70.294013
400.500000	70.103285
399.000000	70.135381
397.500000	69.984546
396.000000	69.981214
394.500000	69.783282
393.000000	69.724223
391.500000	69.668856
390.000000	69.511541
388.500000	69.335539
387.000000	69.122387
385.500000	68.996795
384.000000	68.825082
382.500000	68.645112
381.000000	68.356488
379.500000	68.199740
378.000000	68.178779
376.500000	68.685788
375.000000	68.827394
373.500000	67.970133
372.000000	67.116867
370.500000	65.977189
369.000000	64.944404
367.500000	63.603602
366.000000	62.019329
364.500000	60.247756
363.000000	58.105728
361.500000	55.494987
360.000000	52.415634
358.500000	48.893888
357.000000	44.777584
355.500000	40.145765
354.000000	35.016960
352.500000	29.656025
351.000000	24.148857
349.500000	18.761455
348.000000	13.805994
346.500000	9.511537
345.000000	6.025096
343.500000	3.445460
342.000000	1.750029
340.500000	0.757900
339.000000	0.280759
337.500000	0.110242
336.000000	0.056969
334.500000	0.039063
333.000000	0.040017
331.500000	0.042397
330.000000	0.040617
328.500000	0.040116
327.000000	0.048295
325.500000	0.041689
324.000000	0.032194
322.500000	0.032332
321.000000	0.033660
319.500000	0.039042
318.000000	0.018135
316.500000	-0.016511
315.000000	-0.021582
313.500000	-0.019061
312.000000	-0.022846
310.500000	-0.017119
309.000000	-0.015938
307.500000	-0.005201
306.000000	-0.001421
304.500000	0.006065
303.000000	-0.000095
301.500000	-0.004179
300.000000	-0.006088
