PE UV       SUBTECH     SPECTRUM    ASCII       PEDS        4.00        
   -1
Sample7.Sample.Raw.asc
20/12/09
15:07:33.00
20/12/09
15:07:33.00
Administrator

300.000000
1
Lambda 850
850L1710193
PerkinElmer UV WinLab 6.4.0.973 / 2.02.06 Lambda 800 UV/VIS, Jan 28 2016 16:58:34

0
0
2
0
0
UV/VIS
1
1
1
RBeamAtt,SBeamAtt,60mm sphere
0
0
0
0
Fix
 
0
0.2
0
0
0
 
 
 
0
 
0
319.2
0
Front
100
 
S:100 R:100
 
0
0
0
 
0
 
 
 
0
 
 
0
0
0
0
0
 
 
 
 
0
0


0
0
#HDR
-1
-1
#GR
nm
%T
1.0
0.0
750.000000
-1.500000
301
8
68.798681
-0.041873
#DATA
750.000000	68.439103
748.500000	68.798681
747.000000	68.620052
745.500000	68.633102
744.000000	68.518465
742.500000	68.621810
741.000000	68.561389
739.500000	68.594262
738.000000	68.379203
736.500000	68.233362
735.000000	68.287129
733.500000	68.362401
732.000000	68.173892
730.500000	68.211826
729.000000	68.059291
727.500000	67.978092
726.000000	68.018939
724.500000	68.042155
723.000000	67.982987
721.500000	68.054330
720.000000	67.889491
718.500000	67.823922
717.000000	67.847923
715.500000	67.784632
714.000000	67.723835
712.500000	67.672052
711.000000	67.758615
709.500000	67.601854
708.000000	67.515494
706.500000	67.478167
705.000000	67.571137
703.500000	67.591759
702.000000	67.389342
700.500000	67.382641
699.000000	67.288245
697.500000	67.255088
696.000000	67.217935
694.500000	67.200917
693.000000	67.137064
691.500000	67.106879
690.000000	67.029821
688.500000	67.106721
687.000000	67.018818
685.500000	66.948686
684.000000	66.919964
682.500000	66.874865
681.000000	66.805620
679.500000	66.655458
678.000000	66.605515
676.500000	66.573785
675.000000	66.587353
673.500000	66.540387
672.000000	66.354963
670.500000	66.349911
669.000000	66.288666
667.500000	66.128424
666.000000	66.049677
664.500000	66.027796
663.000000	65.853550
661.500000	65.756907
660.000000	65.687936
658.500000	65.618965
657.000000	65.540854
655.500000	65.480618
654.000000	65.368641
652.500000	65.247051
651.000000	65.186743
649.500000	65.039983
648.000000	64.913992
646.500000	64.848856
645.000000	64.726706
643.500000	64.588636
642.000000	64.450612
640.500000	64.355419
639.000000	64.179404
637.500000	64.091076
636.000000	63.951735
634.500000	63.842852
633.000000	63.729832
631.500000	63.593638
630.000000	63.444934
628.500000	63.327210
627.000000	63.227319
625.500000	63.057136
624.000000	62.894833
622.500000	62.751779
621.000000	62.651525
619.500000	62.491260
618.000000	62.377627
616.500000	62.211774
615.000000	62.061116
613.500000	61.960476
612.000000	61.768196
610.500000	61.643366
609.000000	61.482776
607.500000	61.356621
606.000000	61.192402
604.500000	61.011501
603.000000	60.873826
601.500000	60.754836
600.000000	60.629184
598.500000	60.467960
597.000000	60.321550
595.500000	60.158983
594.000000	60.007948
592.500000	59.880091
591.000000	59.741727
589.500000	59.592176
588.000000	59.462261
586.500000	59.298943
585.000000	59.138389
583.500000	59.007000
582.000000	58.861706
580.500000	58.743828
579.000000	58.595910
577.500000	58.435976
576.000000	58.297557
574.500000	58.177895
573.000000	58.047614
571.500000	57.895674
570.000000	57.742757
568.500000	57.582634
567.000000	57.457081
565.500000	57.319789
564.000000	57.126316
562.500000	56.990025
561.000000	56.987205
559.500000	56.982009
558.000000	56.867106
556.500000	56.748639
555.000000	56.649249
553.500000	56.504473
552.000000	56.395684
550.500000	56.297781
549.000000	56.179679
547.500000	56.074531
546.000000	55.964683
544.500000	55.850900
543.000000	55.747396
541.500000	55.651260
540.000000	55.543477
538.500000	55.453349
537.000000	55.405661
535.500000	55.332047
534.000000	55.218988
532.500000	55.111978
531.000000	55.067185
529.500000	54.965122
528.000000	54.856037
526.500000	54.796377
525.000000	54.715791
523.500000	54.597785
522.000000	54.489139
520.500000	54.366726
519.000000	54.239168
517.500000	54.071842
516.000000	53.872681
514.500000	53.651505
513.000000	53.448256
511.500000	53.221592
510.000000	52.975009
508.500000	52.748673
507.000000	52.510286
505.500000	52.322561
504.000000	52.168711
502.500000	52.069833
501.000000	51.999380
499.500000	51.942418
498.000000	51.912227
496.500000	51.931804
495.000000	51.976670
493.500000	51.970392
492.000000	52.038765
490.500000	52.098423
489.000000	52.130307
487.500000	52.206238
486.000000	52.273149
484.500000	52.383754
483.000000	52.567926
481.500000	52.813385
480.000000	52.837144
478.500000	52.673519
477.000000	52.442241
475.500000	52.284092
474.000000	52.198781
472.500000	52.043353
471.000000	51.877670
469.500000	51.682074
468.000000	51.497625
466.500000	51.267397
465.000000	50.983163
463.500000	50.776758
462.000000	50.584818
460.500000	50.448155
459.000000	50.270433
457.500000	50.196180
456.000000	50.111420
454.500000	50.043746
453.000000	50.018693
451.500000	49.954789
450.000000	49.862570
448.500000	49.771775
447.000000	49.702154
445.500000	49.609548
444.000000	49.720239
442.500000	49.733644
441.000000	49.634650
439.500000	49.513077
438.000000	49.384937
436.500000	49.208480
435.000000	49.058216
433.500000	48.923584
432.000000	48.816433
430.500000	48.660617
429.000000	48.502000
427.500000	48.327664
426.000000	48.159150
424.500000	47.983899
423.000000	47.867767
421.500000	47.643642
420.000000	47.440817
418.500000	47.252269
417.000000	47.065212
415.500000	46.875644
414.000000	46.648341
412.500000	46.461159
411.000000	46.244163
409.500000	46.005093
408.000000	45.851320
406.500000	45.556877
405.000000	45.350486
403.500000	45.183086
402.000000	44.959891
400.500000	44.734036
399.000000	44.466236
397.500000	44.248949
396.000000	44.003098
394.500000	43.759947
393.000000	43.482039
391.500000	43.202988
390.000000	42.999626
388.500000	42.769970
387.000000	42.465071
385.500000	42.193590
384.000000	41.881738
382.500000	41.568142
381.000000	41.240976
379.500000	40.919250
378.000000	40.609971
376.500000	40.669045
375.000000	40.583372
373.500000	39.892964
372.000000	39.124540
370.500000	38.324802
369.000000	37.247804
367.500000	36.168068
366.000000	34.929966
364.500000	33.288930
363.000000	31.531071
361.500000	29.340281
360.000000	26.883045
358.500000	24.070510
357.000000	20.887731
355.500000	17.461111
354.000000	13.999716
352.500000	10.521889
351.000000	7.358706
349.500000	4.696600
348.000000	2.674146
346.500000	1.323428
345.000000	0.557565
343.500000	0.187684
342.000000	0.056272
340.500000	0.020150
339.000000	0.014500
337.500000	0.014124
336.000000	0.022351
334.500000	0.012556
333.000000	0.024666
331.500000	0.016869
330.000000	0.034450
328.500000	0.017435
327.000000	0.024254
325.500000	0.015684
324.000000	0.015595
322.500000	0.010277
321.000000	0.020408
319.500000	0.017592
318.000000	-0.007464
316.500000	-0.041873
315.000000	-0.031608
313.500000	-0.032150
312.000000	-0.030140
310.500000	-0.031799
309.000000	-0.030803
307.500000	-0.022607
306.000000	-0.015890
304.500000	-0.017550
303.000000	-0.024626
301.500000	-0.026927
300.000000	-0.027813
