PE UV       SUBTECH     SPECTRUM    ASCII       PEDS        4.00        
   -1
Sample4.Sample.Raw.asc
20/12/09
14:49:08.00
20/12/09
14:49:08.00
Administrator

300.000000
1
Lambda 850
850L1710193
PerkinElmer UV WinLab 6.4.0.973 / 2.02.06 Lambda 800 UV/VIS, Jan 28 2016 16:58:34

0
0
2
0
0
UV/VIS
1
1
1
RBeamAtt,SBeamAtt,60mm sphere
0
0
0
0
Fix
 
0
0.2
0
0
0
 
 
 
0
 
0
319.2
0
Front
100
 
S:100 R:100
 
0
0
0
 
0
 
 
 
0
 
 
0
0
0
0
0
 
 
 
 
0
0


0
0
#HDR
-1
-1
#GR
nm
%T
1.0
0.0
750.000000
-1.500000
301
8
74.126930
-0.036311
#DATA
750.000000	73.656268
748.500000	74.122708
747.000000	74.061557
745.500000	74.121695
744.000000	73.918772
742.500000	74.126930
741.000000	74.104463
739.500000	74.052025
738.000000	74.068899
736.500000	73.886416
735.000000	74.030640
733.500000	74.028321
732.000000	74.020066
730.500000	74.029081
729.000000	73.992743
727.500000	74.009312
726.000000	73.953047
724.500000	73.967650
723.000000	73.909077
721.500000	74.050057
720.000000	73.918946
718.500000	73.906039
717.000000	73.944306
715.500000	73.889761
714.000000	73.854389
712.500000	73.794734
711.000000	73.928512
709.500000	73.767541
708.000000	73.780885
706.500000	73.738683
705.000000	73.772450
703.500000	73.901436
702.000000	73.712679
700.500000	73.746662
699.000000	73.769314
697.500000	73.672983
696.000000	73.711563
694.500000	73.794680
693.000000	73.715764
691.500000	73.750415
690.000000	73.577834
688.500000	73.727570
687.000000	73.704165
685.500000	73.651000
684.000000	73.711525
682.500000	73.746657
681.000000	73.721054
679.500000	73.676448
678.000000	73.683769
676.500000	73.679761
675.000000	73.798587
673.500000	73.762189
672.000000	73.638835
670.500000	73.702641
669.000000	73.667374
667.500000	73.594932
666.000000	73.695798
664.500000	73.640845
663.000000	73.591521
661.500000	73.579713
660.000000	73.576817
658.500000	73.566516
657.000000	73.600672
655.500000	73.604763
654.000000	73.576405
652.500000	73.570931
651.000000	73.578297
649.500000	73.524643
648.000000	73.572621
646.500000	73.572646
645.000000	73.603079
643.500000	73.538964
642.000000	73.533364
640.500000	73.544187
639.000000	73.503087
637.500000	73.454394
636.000000	73.459972
634.500000	73.441760
633.000000	73.412921
631.500000	73.395386
630.000000	73.366808
628.500000	73.363594
627.000000	73.375206
625.500000	73.380919
624.000000	73.362333
622.500000	73.319370
621.000000	73.340169
619.500000	73.294416
618.000000	73.277585
616.500000	73.276683
615.000000	73.218979
613.500000	73.241657
612.000000	73.167387
610.500000	73.164161
609.000000	73.159920
607.500000	73.123899
606.000000	73.106242
604.500000	73.018135
603.000000	73.034420
601.500000	73.027177
600.000000	73.001620
598.500000	72.976788
597.000000	72.958768
595.500000	72.941389
594.000000	72.942340
592.500000	72.938121
591.000000	72.926333
589.500000	72.899545
588.000000	72.869788
586.500000	72.806846
585.000000	72.756276
583.500000	72.772255
582.000000	72.723313
580.500000	72.700156
579.000000	72.691977
577.500000	72.659614
576.000000	72.629589
574.500000	72.585291
573.000000	72.539853
571.500000	72.533427
570.000000	72.524895
568.500000	72.467812
567.000000	72.424980
565.500000	72.381508
564.000000	72.295001
562.500000	72.259343
561.000000	72.368536
559.500000	72.484131
558.000000	72.481385
556.500000	72.496732
555.000000	72.492235
553.500000	72.427821
552.000000	72.394955
550.500000	72.395015
549.000000	72.399655
547.500000	72.359416
546.000000	72.332069
544.500000	72.333924
543.000000	72.297633
541.500000	72.266334
540.000000	72.226275
538.500000	72.194049
537.000000	72.229953
535.500000	72.235398
534.000000	72.209797
532.500000	72.165018
531.000000	72.180893
529.500000	72.160081
528.000000	72.082332
526.500000	72.067776
525.000000	72.053708
523.500000	71.993593
522.000000	71.925418
520.500000	71.824761
519.000000	71.733104
517.500000	71.598618
516.000000	71.419064
514.500000	71.224339
513.000000	71.005514
511.500000	70.752557
510.000000	70.503389
508.500000	70.270998
507.000000	70.054334
505.500000	69.885862
504.000000	69.769698
502.500000	69.707776
501.000000	69.682601
499.500000	69.751447
498.000000	69.850033
496.500000	69.937056
495.000000	70.061110
493.500000	70.210315
492.000000	70.395098
490.500000	70.524556
489.000000	70.615092
487.500000	70.781110
486.000000	70.922404
484.500000	71.060395
483.000000	71.332892
481.500000	71.633843
480.000000	71.703142
478.500000	71.418042
477.000000	71.106633
475.500000	70.924321
474.000000	70.819770
472.500000	70.640811
471.000000	70.477796
469.500000	70.282659
468.000000	70.019625
466.500000	69.709909
465.000000	69.462759
463.500000	69.217030
462.000000	69.017457
460.500000	68.900456
459.000000	68.857171
457.500000	68.781399
456.000000	68.771319
454.500000	68.749441
453.000000	68.807455
451.500000	68.852928
450.000000	68.894413
448.500000	68.893133
447.000000	68.890603
445.500000	68.890310
444.000000	69.153590
442.500000	69.233657
441.000000	69.217477
439.500000	69.155281
438.000000	69.059859
436.500000	68.885130
435.000000	68.828726
433.500000	68.788754
432.000000	68.792610
430.500000	68.651542
429.000000	68.646155
427.500000	68.445741
426.000000	68.368248
424.500000	68.293915
423.000000	68.310859
421.500000	68.165001
420.000000	68.051832
418.500000	68.013605
417.000000	67.933792
415.500000	67.846074
414.000000	67.684315
412.500000	67.567794
411.000000	67.573119
409.500000	67.431127
408.000000	67.301281
406.500000	67.177960
405.000000	67.093340
403.500000	66.993949
402.000000	66.855453
400.500000	66.800398
399.000000	66.599973
397.500000	66.488842
396.000000	66.302693
394.500000	66.176717
393.000000	66.010117
391.500000	65.796807
390.000000	65.536429
388.500000	65.419598
387.000000	65.186036
385.500000	64.883925
384.000000	64.576786
382.500000	64.066804
381.000000	63.613431
379.500000	63.047733
378.000000	62.318507
376.500000	62.490247
375.000000	61.937071
373.500000	60.389034
372.000000	58.538446
370.500000	56.479719
369.000000	53.963817
367.500000	51.202560
366.000000	47.729060
364.500000	43.803905
363.000000	39.372363
361.500000	34.405141
360.000000	29.022029
358.500000	23.655482
357.000000	18.175128
355.500000	13.259567
354.000000	8.984842
352.500000	5.680927
351.000000	3.290465
349.500000	1.773758
348.000000	0.880592
346.500000	0.401512
345.000000	0.153502
343.500000	0.064322
342.000000	0.035228
340.500000	0.021357
339.000000	0.032532
337.500000	0.020629
336.000000	0.027193
334.500000	0.033297
333.000000	0.038256
331.500000	0.043617
330.000000	0.041713
328.500000	0.055663
327.000000	0.066044
325.500000	0.054613
324.000000	0.055190
322.500000	0.063065
321.000000	0.060101
319.500000	0.069339
318.000000	0.004157
316.500000	-0.030651
315.000000	-0.031420
313.500000	-0.036311
312.000000	-0.031652
310.500000	-0.025837
309.000000	-0.027675
307.500000	-0.021752
306.000000	-0.018554
304.500000	-0.012208
303.000000	-0.017849
301.500000	-0.016710
300.000000	-0.021218
