PE UV       SUBTECH     SPECTRUM    ASCII       PEDS        4.00        
   -1
Sample238.Sample.Raw.asc
21/02/10
10:30:20.00
21/02/10
10:30:20.00
Administrator

300.000000
1
Lambda 850
850L1710193
PerkinElmer UV WinLab 6.4.0.973 / 2.02.06 Lambda 800 UV/VIS, Jan 28 2016 16:58:34

0
0
2
0
0
UV/VIS
1
1
1
RBeamAtt,SBeamAtt,60mm sphere
0
0
0
0
Fix
 
0
0.2
0
0
0
 
 
 
0
 
0
319.2
0
Front
100
 
S:100 R:100
 
0
0
0
 
0
 
 
 
0
 
 
0
0
0
0
0
 
 
 
 
0
0


0
0
#HDR
-1
-1
#GR
nm
%T
1.0
0.0
750.000000
-1.500000
301
8
72.451700
-0.028758
#DATA
750.000000	72.221446
748.500000	72.451700
747.000000	72.434648
745.500000	72.414517
744.000000	72.443287
742.500000	72.359527
741.000000	72.247656
739.500000	72.207218
738.000000	72.325409
736.500000	72.097162
735.000000	72.214711
733.500000	71.989912
732.000000	72.206427
730.500000	72.192907
729.000000	72.063512
727.500000	72.183194
726.000000	72.092608
724.500000	71.956752
723.000000	71.890790
721.500000	71.890239
720.000000	71.835987
718.500000	71.830705
717.000000	71.865631
715.500000	71.862152
714.000000	71.755590
712.500000	71.752785
711.000000	71.695421
709.500000	71.613990
708.000000	71.506194
706.500000	71.597206
705.000000	71.545100
703.500000	71.591146
702.000000	71.490720
700.500000	71.557161
699.000000	71.497048
697.500000	71.455171
696.000000	71.393703
694.500000	71.421313
693.000000	71.341333
691.500000	71.219530
690.000000	71.096729
688.500000	71.214147
687.000000	71.265157
685.500000	71.224040
684.000000	71.189450
682.500000	71.125386
681.000000	71.112440
679.500000	71.040988
678.000000	70.956888
676.500000	70.954471
675.000000	70.839361
673.500000	70.819263
672.000000	70.786245
670.500000	70.737258
669.000000	70.647635
667.500000	70.562631
666.000000	70.532741
664.500000	70.531705
663.000000	70.405421
661.500000	70.345233
660.000000	70.257431
658.500000	70.241629
657.000000	70.069997
655.500000	69.969989
654.000000	69.886397
652.500000	69.840887
651.000000	69.715040
649.500000	69.675919
648.000000	69.567381
646.500000	69.427516
645.000000	69.397747
643.500000	69.301356
642.000000	69.170120
640.500000	69.014038
639.000000	68.912532
637.500000	68.870464
636.000000	68.702911
634.500000	68.633139
633.000000	68.505876
631.500000	68.422245
630.000000	68.270292
628.500000	68.150420
627.000000	68.018795
625.500000	67.941113
624.000000	67.848276
622.500000	67.721934
621.000000	67.604807
619.500000	67.496183
618.000000	67.350997
616.500000	67.232400
615.000000	67.083351
613.500000	66.959142
612.000000	66.828343
610.500000	66.672572
609.000000	66.552693
607.500000	66.420841
606.000000	66.300875
604.500000	66.155387
603.000000	66.010401
601.500000	65.894585
600.000000	65.753290
598.500000	65.660829
597.000000	65.563575
595.500000	65.410883
594.000000	65.239440
592.500000	65.071497
591.000000	64.967897
589.500000	64.870709
588.000000	64.769845
586.500000	64.616590
585.000000	64.436940
583.500000	64.322016
582.000000	64.207137
580.500000	64.114100
579.000000	63.996266
577.500000	63.853648
576.000000	63.725679
574.500000	63.638706
573.000000	63.492717
571.500000	63.354425
570.000000	63.222662
568.500000	63.096619
567.000000	62.999945
565.500000	62.882170
564.000000	62.718282
562.500000	62.618151
561.000000	62.655542
559.500000	62.637394
558.000000	62.576380
556.500000	62.490833
555.000000	62.355115
553.500000	62.280374
552.000000	62.188043
550.500000	62.119741
549.000000	62.042045
547.500000	61.936425
546.000000	61.889869
544.500000	61.817170
543.000000	61.740417
541.500000	61.677873
540.000000	61.616316
538.500000	61.562629
537.000000	61.521074
535.500000	61.465832
534.000000	61.408625
532.500000	61.352968
531.000000	61.278644
529.500000	61.227425
528.000000	61.200842
526.500000	61.132752
525.000000	61.064442
523.500000	60.975575
522.000000	60.883726
520.500000	60.790552
519.000000	60.638843
517.500000	60.488458
516.000000	60.320410
514.500000	60.096848
513.000000	59.838571
511.500000	59.550041
510.000000	59.277721
508.500000	59.005940
507.000000	58.700274
505.500000	58.408023
504.000000	58.147120
502.500000	57.898393
501.000000	57.729592
499.500000	57.557684
498.000000	57.387454
496.500000	57.276158
495.000000	57.188275
493.500000	57.128264
492.000000	57.096861
490.500000	57.108839
489.000000	57.109760
487.500000	57.206307
486.000000	57.289201
484.500000	57.473522
483.000000	57.847722
481.500000	58.239972
480.000000	58.419719
478.500000	58.315353
477.000000	58.149355
475.500000	58.059378
474.000000	57.958357
472.500000	57.857670
471.000000	57.716014
469.500000	57.554406
468.000000	57.340671
466.500000	57.072648
465.000000	56.805258
463.500000	56.530868
462.000000	56.302918
460.500000	56.102365
459.000000	55.915697
457.500000	55.738935
456.000000	55.593866
454.500000	55.396585
453.000000	55.275852
451.500000	55.194860
450.000000	55.135572
448.500000	55.026280
447.000000	54.872052
445.500000	54.806925
444.000000	54.962373
442.500000	54.987086
441.000000	54.929238
439.500000	54.766073
438.000000	54.668179
436.500000	54.580470
435.000000	54.537827
433.500000	54.375179
432.000000	54.298627
430.500000	54.233787
429.000000	54.138937
427.500000	54.000584
426.000000	53.903797
424.500000	53.860185
423.000000	53.745513
421.500000	53.625597
420.000000	53.503502
418.500000	53.413302
417.000000	53.333186
415.500000	53.262981
414.000000	53.115075
412.500000	53.046589
411.000000	52.894120
409.500000	52.861448
408.000000	52.817233
406.500000	52.642122
405.000000	52.583263
403.500000	52.479604
402.000000	52.438916
400.500000	52.366676
399.000000	52.208523
397.500000	52.125151
396.000000	52.041550
394.500000	51.966155
393.000000	51.812522
391.500000	51.708050
390.000000	51.702102
388.500000	51.567698
387.000000	51.473270
385.500000	51.397861
384.000000	51.172865
382.500000	51.067265
381.000000	50.931267
379.500000	50.736775
378.000000	50.640599
376.500000	51.241625
375.000000	51.408446
373.500000	50.768357
372.000000	50.111565
370.500000	49.402053
369.000000	48.656265
367.500000	47.654791
366.000000	46.648250
364.500000	45.264219
363.000000	43.747999
361.500000	41.801990
360.000000	39.531626
358.500000	36.851761
357.000000	33.785172
355.500000	30.186238
354.000000	26.203805
352.500000	22.075607
351.000000	17.832260
349.500000	13.720393
348.000000	9.952115
346.500000	6.718720
345.000000	4.128868
343.500000	2.277455
342.000000	1.092426
340.500000	0.467434
339.000000	0.176605
337.500000	0.073816
336.000000	0.047633
334.500000	0.044692
333.000000	0.042497
331.500000	0.042088
330.000000	0.042455
328.500000	0.046767
327.000000	0.046402
325.500000	0.047070
324.000000	0.046318
322.500000	0.040660
321.000000	0.057374
319.500000	0.042304
318.000000	0.006709
316.500000	-0.021887
315.000000	-0.027885
313.500000	-0.028758
312.000000	-0.027680
310.500000	-0.021770
309.000000	-0.018473
307.500000	-0.010064
306.000000	-0.010650
304.500000	-0.004288
303.000000	-0.007722
301.500000	-0.009740
300.000000	-0.011940
