PE UV       SUBTECH     SPECTRUM    ASCII       PEDS        4.00        
   -1
Sample89.Sample.Raw.asc
20/12/16
16:55:46.00
20/12/16
16:55:46.00
Administrator

300.000000
1
Lambda 850
850L1710193
PerkinElmer UV WinLab 6.4.0.973 / 2.02.06 Lambda 800 UV/VIS, Jan 28 2016 16:58:34

0
0
2
0
0
UV/VIS
1
1
1
RBeamAtt,SBeamAtt,60mm sphere
0
0
0
0
Fix
 
0
0.2
0
0
0
 
 
 
0
 
0
319.2
0
Front
100
 
S:100 R:100
 
0
0
0
 
0
 
 
 
0
 
 
0
0
0
0
0
 
 
 
 
0
0


0
0
#HDR
-1
-1
#GR
nm
%T
1.0
0.0
750.000000
-1.500000
301
8
75.742504
-0.033231
#DATA
750.000000	75.293126
748.500000	75.590645
747.000000	75.441050
745.500000	75.742504
744.000000	75.517959
742.500000	75.568297
741.000000	75.733608
739.500000	75.393311
738.000000	75.383446
736.500000	75.445489
735.000000	75.480798
733.500000	75.503735
732.000000	75.502260
730.500000	75.332385
729.000000	75.465876
727.500000	75.492815
726.000000	75.461418
724.500000	75.448998
723.000000	75.461661
721.500000	75.438604
720.000000	75.393829
718.500000	75.293419
717.000000	75.338132
715.500000	75.198946
714.000000	75.336013
712.500000	75.398587
711.000000	75.267150
709.500000	75.242106
708.000000	75.419851
706.500000	75.227580
705.000000	75.297076
703.500000	75.183728
702.000000	75.144191
700.500000	75.234934
699.000000	75.219774
697.500000	75.119424
696.000000	75.182668
694.500000	75.049042
693.000000	75.138625
691.500000	75.045518
690.000000	74.992384
688.500000	75.213463
687.000000	75.121614
685.500000	75.062175
684.000000	75.011839
682.500000	75.051090
681.000000	75.104491
679.500000	75.113562
678.000000	74.988611
676.500000	74.943642
675.000000	75.054331
673.500000	74.997929
672.000000	74.867287
670.500000	75.024813
669.000000	74.972080
667.500000	74.913422
666.000000	74.899865
664.500000	74.941941
663.000000	74.858630
661.500000	74.859185
660.000000	74.862213
658.500000	74.810166
657.000000	74.831814
655.500000	74.840126
654.000000	74.875789
652.500000	74.855020
651.000000	74.847446
649.500000	74.854382
648.000000	74.763614
646.500000	74.677702
645.000000	74.689978
643.500000	74.716130
642.000000	74.719133
640.500000	74.653517
639.000000	74.685846
637.500000	74.694616
636.000000	74.680205
634.500000	74.608044
633.000000	74.585582
631.500000	74.587789
630.000000	74.571778
628.500000	74.535318
627.000000	74.556646
625.500000	74.579472
624.000000	74.484862
622.500000	74.479517
621.000000	74.513555
619.500000	74.493818
618.000000	74.464973
616.500000	74.459221
615.000000	74.447739
613.500000	74.413131
612.000000	74.374256
610.500000	74.400275
609.000000	74.370485
607.500000	74.329671
606.000000	74.309067
604.500000	74.292044
603.000000	74.302297
601.500000	74.264427
600.000000	74.218302
598.500000	74.232856
597.000000	74.218976
595.500000	74.156360
594.000000	74.103652
592.500000	74.082658
591.000000	74.104719
589.500000	74.137878
588.000000	74.114298
586.500000	74.107270
585.000000	74.064574
583.500000	74.032625
582.000000	74.034023
580.500000	74.005206
579.000000	73.974184
577.500000	73.930596
576.000000	73.895510
574.500000	73.913671
573.000000	73.880061
571.500000	73.846300
570.000000	73.829268
568.500000	73.814630
567.000000	73.793449
565.500000	73.753272
564.000000	73.727177
562.500000	73.682124
561.000000	73.818090
559.500000	73.962953
558.000000	73.937054
556.500000	73.908033
555.000000	73.903159
553.500000	73.870696
552.000000	73.855569
550.500000	73.858531
549.000000	73.857740
547.500000	73.858669
546.000000	73.833073
544.500000	73.816137
543.000000	73.820508
541.500000	73.829721
540.000000	73.835829
538.500000	73.845863
537.000000	73.847229
535.500000	73.853885
534.000000	73.874771
532.500000	73.862438
531.000000	73.857255
529.500000	73.855541
528.000000	73.839750
526.500000	73.833606
525.000000	73.787910
523.500000	73.738705
522.000000	73.712580
520.500000	73.652708
519.000000	73.533616
517.500000	73.398132
516.000000	73.246023
514.500000	73.053050
513.000000	72.835383
511.500000	72.588311
510.000000	72.320424
508.500000	72.062183
507.000000	71.827734
505.500000	71.644297
504.000000	71.484966
502.500000	71.376898
501.000000	71.306449
499.500000	71.264654
498.000000	71.341943
496.500000	71.344167
495.000000	71.362886
493.500000	71.521494
492.000000	71.647018
490.500000	71.760472
489.000000	71.850545
487.500000	71.969404
486.000000	72.156739
484.500000	72.363151
483.000000	72.739472
481.500000	73.212240
480.000000	73.317867
478.500000	73.055498
477.000000	72.802652
475.500000	72.677650
474.000000	72.553956
472.500000	72.455802
471.000000	72.334250
469.500000	72.108435
468.000000	71.841046
466.500000	71.573869
465.000000	71.279473
463.500000	71.058357
462.000000	70.796364
460.500000	70.638244
459.000000	70.499539
457.500000	70.403969
456.000000	70.325207
454.500000	70.276905
453.000000	70.272398
451.500000	70.275585
450.000000	70.225649
448.500000	70.229907
447.000000	70.187296
445.500000	70.230614
444.000000	70.595176
442.500000	70.712195
441.000000	70.673365
439.500000	70.614601
438.000000	70.522190
436.500000	70.444908
435.000000	70.412733
433.500000	70.266865
432.000000	70.234519
430.500000	70.226117
429.000000	70.179184
427.500000	70.102681
426.000000	70.007897
424.500000	69.962352
423.000000	69.910278
421.500000	69.806472
420.000000	69.810397
418.500000	69.756212
417.000000	69.756432
415.500000	69.602635
414.000000	69.456076
412.500000	69.435457
411.000000	69.393909
409.500000	69.285884
408.000000	69.174413
406.500000	69.117117
405.000000	68.989438
403.500000	68.902433
402.000000	68.766742
400.500000	68.707546
399.000000	68.587947
397.500000	68.503256
396.000000	68.311004
394.500000	68.171070
393.000000	68.125314
391.500000	68.004423
390.000000	67.821324
388.500000	67.615504
387.000000	67.432891
385.500000	67.286143
384.000000	67.067620
382.500000	66.853103
381.000000	66.675766
379.500000	66.277619
378.000000	66.317230
376.500000	66.760478
375.000000	66.747673
373.500000	65.918379
372.000000	65.076682
370.500000	64.124714
369.000000	63.129615
367.500000	61.673090
366.000000	60.006910
364.500000	58.297653
363.000000	56.028204
361.500000	53.716500
360.000000	50.607923
358.500000	47.063252
357.000000	42.916387
355.500000	38.447054
354.000000	33.433307
352.500000	28.193515
351.000000	22.904101
349.500000	17.707709
348.000000	12.951189
346.500000	8.863570
345.000000	5.578313
343.500000	3.116090
342.000000	1.567139
340.500000	0.666211
339.000000	0.247722
337.500000	0.083016
336.000000	0.042117
334.500000	0.025627
333.000000	0.041998
331.500000	0.041536
330.000000	0.035730
328.500000	0.033931
327.000000	0.053272
325.500000	0.042486
324.000000	0.044894
322.500000	0.047801
321.000000	0.051119
319.500000	0.064556
318.000000	-0.003761
316.500000	-0.028436
315.000000	-0.033231
313.500000	-0.026125
312.000000	-0.026268
310.500000	-0.024410
309.000000	-0.019418
307.500000	-0.008218
306.000000	-0.007569
304.500000	0.002561
303.000000	-0.001234
301.500000	-0.009124
300.000000	-0.004376
