PE UV       SUBTECH     SPECTRUM    ASCII       PEDS        4.00        
   -1
Sample74.Sample.Raw.asc
21/04/16
12:35:14.00
21/04/16
12:35:14.00
Administrator

300.000000
1
Lambda 850
850L1710193
PerkinElmer UV WinLab 6.4.0.973 / 2.02.06 Lambda 800 UV/VIS, Jan 28 2016 16:58:34

0
0
2
0
0
UV/VIS
1
1
1
RBeamAtt,SBeamAtt,60mm sphere
0
0
0
0
Fix
 
0
0.2
0
0
0
 
 
 
0
 
0
340
0
Front
100
 
S:100 R:100
 
0
0
0
 
0
 
 
 
0
 
 
0
0
0
0
0
 
 
 
 
0
0


0
0
#HDR
-1
-1
#GR
nm
%T
1.0
0.0
750.000000
-1.500000
301
8
74.113801
-0.039061
#DATA
750.000000	73.777982
748.500000	74.082458
747.000000	74.030174
745.500000	74.060687
744.000000	74.087751
742.500000	74.048714
741.000000	74.082040
739.500000	74.110836
738.000000	74.081289
736.500000	73.955062
735.000000	73.882444
733.500000	73.946795
732.000000	74.022922
730.500000	74.000774
729.000000	74.077725
727.500000	73.948128
726.000000	74.079566
724.500000	74.113801
723.000000	73.980825
721.500000	74.067700
720.000000	73.994086
718.500000	73.856103
717.000000	73.744687
715.500000	73.884243
714.000000	73.904821
712.500000	73.720143
711.000000	73.784594
709.500000	73.805186
708.000000	73.820104
706.500000	73.825934
705.000000	73.787976
703.500000	73.788954
702.000000	73.676284
700.500000	73.779230
699.000000	73.707967
697.500000	73.716387
696.000000	73.738936
694.500000	73.807654
693.000000	73.744825
691.500000	73.678734
690.000000	73.495979
688.500000	73.680605
687.000000	73.688791
685.500000	73.728927
684.000000	73.718273
682.500000	73.639480
681.000000	73.570230
679.500000	73.674666
678.000000	73.636865
676.500000	73.616534
675.000000	73.566646
673.500000	73.580556
672.000000	73.568806
670.500000	73.451786
669.000000	73.513104
667.500000	73.486304
666.000000	73.465841
664.500000	73.530412
663.000000	73.516383
661.500000	73.486081
660.000000	73.422746
658.500000	73.356617
657.000000	73.389768
655.500000	73.372531
654.000000	73.343759
652.500000	73.346992
651.000000	73.363932
649.500000	73.296610
648.000000	73.365480
646.500000	73.323068
645.000000	73.282169
643.500000	73.277847
642.000000	73.265200
640.500000	73.269840
639.000000	73.307002
637.500000	73.226159
636.000000	73.168897
634.500000	73.188455
633.000000	73.151424
631.500000	73.092088
630.000000	73.108308
628.500000	73.109318
627.000000	73.109761
625.500000	73.083161
624.000000	73.055195
622.500000	72.996685
621.000000	73.013373
619.500000	73.002677
618.000000	72.970308
616.500000	72.934055
615.000000	72.874316
613.500000	72.864207
612.000000	72.861552
610.500000	72.889926
609.000000	72.868388
607.500000	72.850346
606.000000	72.822944
604.500000	72.777619
603.000000	72.740360
601.500000	72.701141
600.000000	72.720108
598.500000	72.720079
597.000000	72.662411
595.500000	72.679585
594.000000	72.693012
592.500000	72.624220
591.000000	72.620414
589.500000	72.656466
588.000000	72.638700
586.500000	72.563072
585.000000	72.512789
583.500000	72.518338
582.000000	72.474690
580.500000	72.464687
579.000000	72.476080
577.500000	72.442522
576.000000	72.413281
574.500000	72.373399
573.000000	72.332529
571.500000	72.301694
570.000000	72.307299
568.500000	72.234213
567.000000	72.134890
565.500000	72.106039
564.000000	72.099916
562.500000	72.075292
561.000000	72.206421
559.500000	72.326293
558.000000	72.291754
556.500000	72.261991
555.000000	72.222819
553.500000	72.203319
552.000000	72.173932
550.500000	72.127452
549.000000	72.105798
547.500000	72.105039
546.000000	72.094310
544.500000	72.076768
543.000000	72.080470
541.500000	72.064623
540.000000	72.000531
538.500000	71.968790
537.000000	71.986266
535.500000	71.967741
534.000000	71.931774
532.500000	71.917096
531.000000	71.907208
529.500000	71.858907
528.000000	71.818194
526.500000	71.793790
525.000000	71.770515
523.500000	71.717256
522.000000	71.658467
520.500000	71.581058
519.000000	71.475687
517.500000	71.370426
516.000000	71.223124
514.500000	71.008693
513.000000	70.777340
511.500000	70.589582
510.000000	70.369801
508.500000	70.126288
507.000000	69.929035
505.500000	69.754322
504.000000	69.629178
502.500000	69.567355
501.000000	69.561171
499.500000	69.600810
498.000000	69.694710
496.500000	69.806163
495.000000	69.929936
493.500000	70.066554
492.000000	70.171216
490.500000	70.337055
489.000000	70.481243
487.500000	70.607585
486.000000	70.746327
484.500000	70.902629
483.000000	71.186773
481.500000	71.509065
480.000000	71.561757
478.500000	71.257879
477.000000	71.014318
475.500000	70.842954
474.000000	70.652543
472.500000	70.491150
471.000000	70.348422
469.500000	70.133605
468.000000	69.916284
466.500000	69.667965
465.000000	69.402930
463.500000	69.148521
462.000000	68.999963
460.500000	68.869145
459.000000	68.760941
457.500000	68.687884
456.000000	68.670755
454.500000	68.678812
453.000000	68.746325
451.500000	68.696154
450.000000	68.767438
448.500000	68.805447
447.000000	68.790432
445.500000	68.823094
444.000000	69.107967
442.500000	69.146667
441.000000	69.056470
439.500000	69.036611
438.000000	68.966758
436.500000	68.813053
435.000000	68.808564
433.500000	68.730564
432.000000	68.571900
430.500000	68.525986
429.000000	68.413587
427.500000	68.333698
426.000000	68.376063
424.500000	68.296752
423.000000	68.266583
421.500000	68.181407
420.000000	68.128453
418.500000	67.954738
417.000000	67.884082
415.500000	67.757358
414.000000	67.684341
412.500000	67.605320
411.000000	67.570896
409.500000	67.328784
408.000000	67.248787
406.500000	67.170554
405.000000	67.047863
403.500000	67.017870
402.000000	66.840014
400.500000	66.757909
399.000000	66.638826
397.500000	66.523516
396.000000	66.397792
394.500000	66.249377
393.000000	66.143178
391.500000	65.923977
390.000000	65.847512
388.500000	65.769369
387.000000	65.438542
385.500000	65.230116
384.000000	65.051012
382.500000	64.743522
381.000000	64.417776
379.500000	64.001966
378.000000	63.813670
376.500000	64.229103
375.000000	64.153801
373.500000	63.226940
372.000000	62.146625
370.500000	60.861571
369.000000	59.533028
367.500000	57.716138
366.000000	56.021532
364.500000	53.527482
363.000000	50.805776
361.500000	47.443211
360.000000	43.702741
358.500000	39.495195
357.000000	34.691922
355.500000	29.500172
354.000000	24.106852
352.500000	18.796503
351.000000	13.904253
349.500000	9.659782
348.000000	6.322850
346.500000	3.885767
345.000000	2.200967
343.500000	1.178163
342.000000	0.597663
340.500000	0.261498
339.000000	0.075969
337.500000	-0.031570
336.000000	-0.035758
334.500000	-0.033273
333.000000	-0.031640
331.500000	-0.029345
330.000000	-0.031090
328.500000	-0.021429
327.000000	-0.025648
325.500000	-0.030116
324.000000	-0.021323
322.500000	-0.018486
321.000000	-0.008877
319.500000	-0.022820
318.000000	-0.004516
316.500000	-0.030055
315.000000	-0.037100
313.500000	-0.031484
312.000000	-0.039061
310.500000	-0.031468
309.000000	-0.022650
307.500000	-0.023621
306.000000	-0.005871
304.500000	-0.002373
303.000000	-0.003233
301.500000	-0.004085
300.000000	-0.011328
