PE UV       SUBTECH     SPECTRUM    ASCII       PEDS        4.00        
   -1
Sample73.Sample.Raw.asc
21/04/16
12:32:15.00
21/04/16
12:32:15.00
Administrator

300.000000
1
Lambda 850
850L1710193
PerkinElmer UV WinLab 6.4.0.973 / 2.02.06 Lambda 800 UV/VIS, Jan 28 2016 16:58:34

0
0
2
0
0
UV/VIS
1
1
1
RBeamAtt,SBeamAtt,60mm sphere
0
0
0
0
Fix
 
0
0.2
0
0
0
 
 
 
0
 
0
340
0
Front
100
 
S:100 R:100
 
0
0
0
 
0
 
 
 
0
 
 
0
0
0
0
0
 
 
 
 
0
0


0
0
#HDR
-1
-1
#GR
nm
%T
1.0
0.0
750.000000
-1.500000
301
8
75.092578
-0.045262
#DATA
750.000000	74.812433
748.500000	75.092578
747.000000	75.038227
745.500000	74.988490
744.000000	75.025254
742.500000	75.040886
741.000000	75.037202
739.500000	75.046457
738.000000	75.063741
736.500000	74.860129
735.000000	74.963881
733.500000	74.910095
732.000000	74.942687
730.500000	75.066025
729.000000	74.995518
727.500000	74.890529
726.000000	74.941982
724.500000	74.942842
723.000000	74.834677
721.500000	74.920943
720.000000	74.855549
718.500000	74.781574
717.000000	74.797524
715.500000	74.819565
714.000000	74.876623
712.500000	74.671269
711.000000	74.738970
709.500000	74.719697
708.000000	74.837806
706.500000	74.775822
705.000000	74.737827
703.500000	74.757905
702.000000	74.593305
700.500000	74.668650
699.000000	74.615543
697.500000	74.578086
696.000000	74.657336
694.500000	74.748474
693.000000	74.649138
691.500000	74.665742
690.000000	74.502746
688.500000	74.677036
687.000000	74.599484
685.500000	74.633580
684.000000	74.616281
682.500000	74.510085
681.000000	74.502159
679.500000	74.622007
678.000000	74.574241
676.500000	74.465400
675.000000	74.479339
673.500000	74.486219
672.000000	74.529052
670.500000	74.441796
669.000000	74.374333
667.500000	74.428084
666.000000	74.466586
664.500000	74.436057
663.000000	74.307957
661.500000	74.395057
660.000000	74.347371
658.500000	74.361667
657.000000	74.380358
655.500000	74.323881
654.000000	74.286496
652.500000	74.270651
651.000000	74.269791
649.500000	74.235244
648.000000	74.316201
646.500000	74.261210
645.000000	74.200562
643.500000	74.215482
642.000000	74.168903
640.500000	74.142527
639.000000	74.191276
637.500000	74.126252
636.000000	74.130096
634.500000	74.110062
633.000000	74.051909
631.500000	74.004747
630.000000	74.074245
628.500000	74.064920
627.000000	74.055385
625.500000	74.028584
624.000000	73.997931
622.500000	73.926211
621.000000	73.922247
619.500000	73.894516
618.000000	73.903157
616.500000	73.925956
615.000000	73.864026
613.500000	73.821482
612.000000	73.844036
610.500000	73.843644
609.000000	73.796320
607.500000	73.808535
606.000000	73.740668
604.500000	73.723759
603.000000	73.711087
601.500000	73.689754
600.000000	73.682890
598.500000	73.665071
597.000000	73.638821
595.500000	73.673158
594.000000	73.679227
592.500000	73.624101
591.000000	73.597507
589.500000	73.606953
588.000000	73.617291
586.500000	73.530198
585.000000	73.479100
583.500000	73.477538
582.000000	73.458627
580.500000	73.479349
579.000000	73.519860
577.500000	73.471938
576.000000	73.408241
574.500000	73.397417
573.000000	73.357816
571.500000	73.309211
570.000000	73.332866
568.500000	73.294522
567.000000	73.249105
565.500000	73.205213
564.000000	73.183766
562.500000	73.192086
561.000000	73.328267
559.500000	73.465461
558.000000	73.439825
556.500000	73.430199
555.000000	73.423016
553.500000	73.410969
552.000000	73.393626
550.500000	73.367518
549.000000	73.368380
547.500000	73.345574
546.000000	73.350260
544.500000	73.379624
543.000000	73.369947
541.500000	73.351565
540.000000	73.317031
538.500000	73.307080
537.000000	73.343347
535.500000	73.324346
534.000000	73.301271
532.500000	73.328077
531.000000	73.348510
529.500000	73.302793
528.000000	73.327053
526.500000	73.339366
525.000000	73.297442
523.500000	73.272556
522.000000	73.240386
520.500000	73.157836
519.000000	73.069313
517.500000	72.956692
516.000000	72.816977
514.500000	72.619528
513.000000	72.415386
511.500000	72.184296
510.000000	71.969928
508.500000	71.716242
507.000000	71.469189
505.500000	71.249300
504.000000	71.072768
502.500000	70.959847
501.000000	70.891979
499.500000	70.875654
498.000000	70.891073
496.500000	70.925346
495.000000	70.991252
493.500000	71.099067
492.000000	71.193865
490.500000	71.306705
489.000000	71.484833
487.500000	71.623903
486.000000	71.793612
484.500000	72.005690
483.000000	72.318254
481.500000	72.731302
480.000000	72.886045
478.500000	72.666404
477.000000	72.475907
475.500000	72.343747
474.000000	72.166208
472.500000	72.088162
471.000000	71.974295
469.500000	71.789181
468.000000	71.571410
466.500000	71.296531
465.000000	71.052406
463.500000	70.807578
462.000000	70.603926
460.500000	70.459553
459.000000	70.279600
457.500000	70.163927
456.000000	70.129141
454.500000	70.094385
453.000000	70.075228
451.500000	70.008142
450.000000	69.995275
448.500000	70.012819
447.000000	69.974629
445.500000	69.909881
444.000000	70.223406
442.500000	70.318753
441.000000	70.191766
439.500000	70.140679
438.000000	70.036745
436.500000	69.925711
435.000000	69.916526
433.500000	69.810161
432.000000	69.698413
430.500000	69.684452
429.000000	69.614817
427.500000	69.458469
426.000000	69.485401
424.500000	69.398494
423.000000	69.324516
421.500000	69.262961
420.000000	69.184011
418.500000	69.077044
417.000000	68.975513
415.500000	68.982804
414.000000	68.799026
412.500000	68.674975
411.000000	68.698426
409.500000	68.401752
408.000000	68.363774
406.500000	68.260177
405.000000	68.159225
403.500000	68.089684
402.000000	67.968829
400.500000	67.911422
399.000000	67.732565
397.500000	67.649269
396.000000	67.506560
394.500000	67.408152
393.000000	67.353773
391.500000	67.129800
390.000000	67.024644
388.500000	66.934215
387.000000	66.737758
385.500000	66.506685
384.000000	66.344636
382.500000	66.169940
381.000000	65.843410
379.500000	65.550689
378.000000	65.320406
376.500000	66.053396
375.000000	66.131045
373.500000	65.437554
372.000000	64.557741
370.500000	63.457018
369.000000	62.647179
367.500000	61.355182
366.000000	60.101372
364.500000	58.500790
363.000000	56.483131
361.500000	54.246552
360.000000	51.780044
358.500000	48.556369
357.000000	44.897399
355.500000	40.863779
354.000000	36.144572
352.500000	31.114190
351.000000	26.016760
349.500000	20.793301
348.000000	15.825203
346.500000	11.335802
345.000000	7.500390
343.500000	4.543935
342.000000	2.475822
340.500000	1.163736
339.000000	0.421502
337.500000	0.086353
336.000000	-0.009752
334.500000	-0.045262
333.000000	-0.027545
331.500000	-0.035214
330.000000	-0.030531
328.500000	-0.036336
327.000000	-0.033855
325.500000	-0.037202
324.000000	-0.025625
322.500000	-0.040708
321.000000	-0.043451
319.500000	-0.020763
318.000000	0.015430
316.500000	-0.021414
315.000000	-0.027707
313.500000	-0.024718
312.000000	-0.022872
310.500000	-0.014886
309.000000	-0.010665
307.500000	-0.008598
306.000000	-0.004356
304.500000	0.000285
303.000000	-0.001617
301.500000	-0.007029
300.000000	-0.006188
