PE UV       SUBTECH     SPECTRUM    ASCII       PEDS        4.00        
   -1
Sample64.Sample.Raw.asc
21/04/15
11:14:11.00
21/04/15
11:14:11.00
Administrator

300.000000
1
Lambda 850
850L1710193
PerkinElmer UV WinLab 6.4.0.973 / 2.02.06 Lambda 800 UV/VIS, Jan 28 2016 16:58:34

0
0
2
0
0
UV/VIS
1
1
1
RBeamAtt,SBeamAtt,60mm sphere
0
0
0
0
Fix
 
0
0.2
0
0
0
 
 
 
0
 
0
340
0
Front
100
 
S:100 R:100
 
0
0
0
 
0
 
 
 
0
 
 
0
0
0
0
0
 
 
 
 
0
0


0
0
#HDR
-1
-1
#GR
nm
%T
1.0
0.0
750.000000
-1.500000
301
8
74.414296
-0.057883
#DATA
750.000000	74.153312
748.500000	74.414296
747.000000	74.092274
745.500000	74.397374
744.000000	74.073265
742.500000	74.304869
741.000000	74.247683
739.500000	74.348947
738.000000	74.115210
736.500000	74.161109
735.000000	74.171739
733.500000	74.166480
732.000000	74.114384
730.500000	74.191666
729.000000	74.118606
727.500000	74.140917
726.000000	74.090428
724.500000	74.092805
723.000000	74.112447
721.500000	74.153468
720.000000	74.191548
718.500000	74.050550
717.000000	74.095980
715.500000	74.039512
714.000000	74.066883
712.500000	74.085050
711.000000	74.082259
709.500000	74.041293
708.000000	73.981163
706.500000	73.891925
705.000000	73.999080
703.500000	73.937330
702.000000	73.816248
700.500000	73.874934
699.000000	73.953911
697.500000	73.910316
696.000000	73.803017
694.500000	73.833035
693.000000	73.856607
691.500000	73.804236
690.000000	73.655813
688.500000	73.755922
687.000000	73.742741
685.500000	73.741472
684.000000	73.725805
682.500000	73.823273
681.000000	73.752595
679.500000	73.759804
678.000000	73.739543
676.500000	73.681894
675.000000	73.683226
673.500000	73.614235
672.000000	73.626422
670.500000	73.652610
669.000000	73.596251
667.500000	73.538254
666.000000	73.561497
664.500000	73.581816
663.000000	73.525942
661.500000	73.465799
660.000000	73.496665
658.500000	73.511278
657.000000	73.454970
655.500000	73.431721
654.000000	73.506405
652.500000	73.456101
651.000000	73.396305
649.500000	73.365749
648.000000	73.337461
646.500000	73.353911
645.000000	73.287342
643.500000	73.304258
642.000000	73.257042
640.500000	73.268206
639.000000	73.176388
637.500000	73.152922
636.000000	73.101691
634.500000	73.115308
633.000000	73.045948
631.500000	73.050295
630.000000	73.051301
628.500000	73.090523
627.000000	73.062260
625.500000	73.054858
624.000000	72.967913
622.500000	72.942282
621.000000	72.907276
619.500000	72.912242
618.000000	72.866001
616.500000	72.803769
615.000000	72.797304
613.500000	72.749723
612.000000	72.753747
610.500000	72.700437
609.000000	72.670976
607.500000	72.642837
606.000000	72.647179
604.500000	72.628586
603.000000	72.667741
601.500000	72.569932
600.000000	72.494921
598.500000	72.453599
597.000000	72.447364
595.500000	72.410428
594.000000	72.393003
592.500000	72.366723
591.000000	72.301921
589.500000	72.245529
588.000000	72.257505
586.500000	72.250564
585.000000	72.207755
583.500000	72.181597
582.000000	72.136022
580.500000	72.064233
579.000000	72.049229
577.500000	72.029688
576.000000	71.994347
574.500000	71.946780
573.000000	71.904200
571.500000	71.855404
570.000000	71.818492
568.500000	71.787996
567.000000	71.711455
565.500000	71.659128
564.000000	71.584879
562.500000	71.556118
561.000000	71.683882
559.500000	71.739017
558.000000	71.729518
556.500000	71.712608
555.000000	71.641131
553.500000	71.631166
552.000000	71.602381
550.500000	71.535663
549.000000	71.525739
547.500000	71.517049
546.000000	71.468537
544.500000	71.453805
543.000000	71.421942
541.500000	71.374023
540.000000	71.340758
538.500000	71.300450
537.000000	71.299277
535.500000	71.263089
534.000000	71.207397
532.500000	71.190388
531.000000	71.155577
529.500000	71.106661
528.000000	71.069897
526.500000	71.028450
525.000000	70.974520
523.500000	70.893209
522.000000	70.793218
520.500000	70.721659
519.000000	70.634755
517.500000	70.505729
516.000000	70.328442
514.500000	70.110987
513.000000	69.897139
511.500000	69.663551
510.000000	69.444754
508.500000	69.212939
507.000000	68.988333
505.500000	68.823454
504.000000	68.706455
502.500000	68.610735
501.000000	68.603080
499.500000	68.636905
498.000000	68.700462
496.500000	68.827364
495.000000	68.892441
493.500000	69.061700
492.000000	69.225193
490.500000	69.281607
489.000000	69.446075
487.500000	69.575755
486.000000	69.716648
484.500000	69.883883
483.000000	70.087952
481.500000	70.376089
480.000000	70.375007
478.500000	70.082852
477.000000	69.807364
475.500000	69.646530
474.000000	69.528685
472.500000	69.327490
471.000000	69.157303
469.500000	68.949033
468.000000	68.670452
466.500000	68.373071
465.000000	68.121252
463.500000	67.866625
462.000000	67.690096
460.500000	67.568326
459.000000	67.467364
457.500000	67.422089
456.000000	67.377809
454.500000	67.353076
453.000000	67.393121
451.500000	67.432241
450.000000	67.430252
448.500000	67.456902
447.000000	67.390200
445.500000	67.442590
444.000000	67.669326
442.500000	67.871335
441.000000	67.756759
439.500000	67.619439
438.000000	67.515391
436.500000	67.504648
435.000000	67.392804
433.500000	67.331011
432.000000	67.241716
430.500000	67.206912
429.000000	67.109259
427.500000	67.085296
426.000000	66.977529
424.500000	66.917030
423.000000	66.859442
421.500000	66.764323
420.000000	66.681793
418.500000	66.593279
417.000000	66.546117
415.500000	66.454660
414.000000	66.411391
412.500000	66.250807
411.000000	66.101871
409.500000	66.030950
408.000000	65.860476
406.500000	65.777840
405.000000	65.652487
403.500000	65.579353
402.000000	65.452060
400.500000	65.309190
399.000000	65.232900
397.500000	65.055558
396.000000	64.987984
394.500000	64.800701
393.000000	64.659689
391.500000	64.546369
390.000000	64.351216
388.500000	64.153875
387.000000	63.969298
385.500000	63.767055
384.000000	63.387914
382.500000	63.285606
381.000000	62.848584
379.500000	62.400280
378.000000	62.163100
376.500000	62.667145
375.000000	62.500513
373.500000	61.567013
372.000000	60.484530
370.500000	59.085841
369.000000	57.792883
367.500000	56.177603
366.000000	54.242215
364.500000	51.778252
363.000000	49.142942
361.500000	46.032443
360.000000	42.271240
358.500000	38.171077
357.000000	33.571888
355.500000	28.472249
354.000000	23.313167
352.500000	18.207899
351.000000	13.517093
349.500000	9.485101
348.000000	6.264751
346.500000	3.881867
345.000000	2.248834
343.500000	1.215503
342.000000	0.610464
340.500000	0.283798
339.000000	0.048464
337.500000	-0.023950
336.000000	-0.033283
334.500000	-0.039694
333.000000	-0.057883
331.500000	-0.039999
330.000000	-0.040642
328.500000	-0.031461
327.000000	-0.042911
325.500000	-0.039108
324.000000	-0.040104
322.500000	-0.026913
321.000000	-0.040983
319.500000	-0.029945
318.000000	-0.005171
316.500000	-0.035892
315.000000	-0.046428
313.500000	-0.043522
312.000000	-0.038999
310.500000	-0.031484
309.000000	-0.025380
307.500000	-0.029560
306.000000	-0.015625
304.500000	-0.010248
303.000000	-0.012272
301.500000	-0.012363
300.000000	-0.013425
