PE UV       SUBTECH     SPECTRUM    ASCII       PEDS        4.00        
   -1
Sample237.Sample.Raw.asc
21/02/10
10:27:27.00
21/02/10
10:27:27.00
Administrator

300.000000
1
Lambda 850
850L1710193
PerkinElmer UV WinLab 6.4.0.973 / 2.02.06 Lambda 800 UV/VIS, Jan 28 2016 16:58:34

0
0
2
0
0
UV/VIS
1
1
1
RBeamAtt,SBeamAtt,60mm sphere
0
0
0
0
Fix
 
0
0.2
0
0
0
 
 
 
0
 
0
319.2
0
Front
100
 
S:100 R:100
 
0
0
0
 
0
 
 
 
0
 
 
0
0
0
0
0
 
 
 
 
0
0


0
0
#HDR
-1
-1
#GR
nm
%T
1.0
0.0
750.000000
-1.500000
301
8
72.021120
-0.022818
#DATA
750.000000	71.821517
748.500000	72.021120
747.000000	71.955344
745.500000	71.875266
744.000000	71.920186
742.500000	71.812857
741.000000	71.672117
739.500000	71.632207
738.000000	71.764437
736.500000	71.560322
735.000000	71.717715
733.500000	71.551309
732.000000	71.642521
730.500000	71.573451
729.000000	71.446674
727.500000	71.526110
726.000000	71.411196
724.500000	71.239093
723.000000	71.174707
721.500000	71.160961
720.000000	71.183971
718.500000	71.139089
717.000000	71.126884
715.500000	71.061052
714.000000	71.010192
712.500000	71.048780
711.000000	70.921209
709.500000	70.832374
708.000000	70.796751
706.500000	70.836270
705.000000	70.757466
703.500000	70.747616
702.000000	70.725896
700.500000	70.647196
699.000000	70.681084
697.500000	70.559513
696.000000	70.413785
694.500000	70.539616
693.000000	70.452658
691.500000	70.274018
690.000000	70.154223
688.500000	70.281255
687.000000	70.219968
685.500000	70.167890
684.000000	70.142195
682.500000	70.078217
681.000000	69.991629
679.500000	69.974680
678.000000	69.794058
676.500000	69.673706
675.000000	69.612567
673.500000	69.624396
672.000000	69.510109
670.500000	69.407778
669.000000	69.327215
667.500000	69.142011
666.000000	69.076404
664.500000	69.034109
663.000000	68.961218
661.500000	68.824042
660.000000	68.702190
658.500000	68.569875
657.000000	68.429907
655.500000	68.339762
654.000000	68.175794
652.500000	68.090352
651.000000	67.885670
649.500000	67.762121
648.000000	67.610779
646.500000	67.479152
645.000000	67.372644
643.500000	67.271922
642.000000	67.113225
640.500000	66.925647
639.000000	66.743561
637.500000	66.626056
636.000000	66.416628
634.500000	66.241901
633.000000	66.090726
631.500000	65.909998
630.000000	65.745212
628.500000	65.526989
627.000000	65.371091
625.500000	65.245254
624.000000	65.112280
622.500000	64.928121
621.000000	64.693479
619.500000	64.491983
618.000000	64.269153
616.500000	64.139586
615.000000	63.950359
613.500000	63.753582
612.000000	63.567668
610.500000	63.367821
609.000000	63.160723
607.500000	62.959722
606.000000	62.781984
604.500000	62.577226
603.000000	62.390435
601.500000	62.206121
600.000000	61.953141
598.500000	61.716271
597.000000	61.586563
595.500000	61.392187
594.000000	61.162301
592.500000	60.913289
591.000000	60.764223
589.500000	60.569137
588.000000	60.400137
586.500000	60.189740
585.000000	59.958639
583.500000	59.789092
582.000000	59.555397
580.500000	59.342093
579.000000	59.172267
577.500000	58.989232
576.000000	58.771159
574.500000	58.606085
573.000000	58.411090
571.500000	58.196166
570.000000	58.004447
568.500000	57.798998
567.000000	57.619407
565.500000	57.416279
564.000000	57.182261
562.500000	57.008714
561.000000	56.948655
559.500000	56.861131
558.000000	56.716722
556.500000	56.557106
555.000000	56.368653
553.500000	56.212004
552.000000	56.034026
550.500000	55.877651
549.000000	55.732160
547.500000	55.561757
546.000000	55.413042
544.500000	55.282509
543.000000	55.135669
541.500000	55.005016
540.000000	54.873587
538.500000	54.735998
537.000000	54.626526
535.500000	54.488683
534.000000	54.338743
532.500000	54.206093
531.000000	54.078441
529.500000	53.974256
528.000000	53.853350
526.500000	53.707133
525.000000	53.550363
523.500000	53.368470
522.000000	53.200725
520.500000	53.038881
519.000000	52.835185
517.500000	52.618695
516.000000	52.390346
514.500000	52.103083
513.000000	51.776967
511.500000	51.429253
510.000000	51.081851
508.500000	50.728157
507.000000	50.351819
505.500000	50.001201
504.000000	49.670058
502.500000	49.363743
501.000000	49.070037
499.500000	48.766357
498.000000	48.515141
496.500000	48.303370
495.000000	48.111065
493.500000	47.931320
492.000000	47.779792
490.500000	47.673700
489.000000	47.594524
487.500000	47.575082
486.000000	47.579038
484.500000	47.659469
483.000000	47.938993
481.500000	48.216558
480.000000	48.329624
478.500000	48.202337
477.000000	48.009545
475.500000	47.846397
474.000000	47.705322
472.500000	47.542000
471.000000	47.379179
469.500000	47.149045
468.000000	46.916464
466.500000	46.635230
465.000000	46.317948
463.500000	46.010042
462.000000	45.754655
460.500000	45.491873
459.000000	45.242550
457.500000	44.998100
456.000000	44.809434
454.500000	44.598067
453.000000	44.417540
451.500000	44.207838
450.000000	44.064804
448.500000	43.886477
447.000000	43.701799
445.500000	43.623655
444.000000	43.629626
442.500000	43.605921
441.000000	43.519265
439.500000	43.317522
438.000000	43.185855
436.500000	43.038104
435.000000	42.950423
433.500000	42.805574
432.000000	42.704678
430.500000	42.548341
429.000000	42.455993
427.500000	42.346490
426.000000	42.195200
424.500000	42.142568
423.000000	41.988873
421.500000	41.884062
420.000000	41.748097
418.500000	41.684119
417.000000	41.534889
415.500000	41.417486
414.000000	41.322123
412.500000	41.220687
411.000000	41.116023
409.500000	41.023163
408.000000	40.901769
406.500000	40.761617
405.000000	40.742859
403.500000	40.556706
402.000000	40.539370
400.500000	40.429303
399.000000	40.348119
397.500000	40.289443
396.000000	40.197561
394.500000	40.042169
393.000000	39.997440
391.500000	39.913499
390.000000	39.835941
388.500000	39.754209
387.000000	39.685136
385.500000	39.541867
384.000000	39.414924
382.500000	39.350403
381.000000	39.198309
379.500000	39.037016
378.000000	39.069589
376.500000	39.365642
375.000000	39.571783
373.500000	39.202292
372.000000	38.665296
370.500000	38.147974
369.000000	37.595287
367.500000	36.936491
366.000000	36.132038
364.500000	35.122348
363.000000	34.137306
361.500000	32.724136
360.000000	31.028048
358.500000	29.054294
357.000000	26.795114
355.500000	24.184414
354.000000	21.272775
352.500000	18.167029
351.000000	14.903468
349.500000	11.698199
348.000000	8.702858
346.500000	6.082776
345.000000	3.887389
343.500000	2.261689
342.000000	1.176751
340.500000	0.526409
339.000000	0.203003
337.500000	0.082834
336.000000	0.048377
334.500000	0.046368
333.000000	0.045293
331.500000	0.042833
330.000000	0.041802
328.500000	0.044713
327.000000	0.043969
325.500000	0.044735
324.000000	0.052213
322.500000	0.050591
321.000000	0.042773
319.500000	0.044457
318.000000	0.006047
316.500000	-0.020472
315.000000	-0.022421
313.500000	-0.022818
312.000000	-0.019650
310.500000	-0.021959
309.000000	-0.021505
307.500000	-0.016520
306.000000	-0.009985
304.500000	-0.004574
303.000000	-0.004671
301.500000	-0.008212
300.000000	-0.010412
