PE UV       SUBTECH     SPECTRUM    ASCII       PEDS        4.00        
   -1
Sample316.Sample.Raw.asc
21/03/25
15:23:26.00
21/03/25
15:23:26.00
Administrator

300.000000
1
Lambda 850
850L1710193
PerkinElmer UV WinLab 6.4.0.973 / 2.02.06 Lambda 800 UV/VIS, Jan 28 2016 16:58:34

0
0
2
0
0
UV/VIS
1
1
1
RBeamAtt,SBeamAtt,60mm sphere
0
0
0
0
Fix
 
0
0.2
0
0
0
 
 
 
0
 
0
340
0
Front
100
 
S:100 R:100
 
0
0
0
 
0
 
 
 
0
 
 
0
0
0
0
0
 
 
 
 
0
0


0
0
#HDR
-1
-1
#GR
nm
%T
1.0
0.0
750.000000
-1.500000
301
8
72.947967
-0.054718
#DATA
750.000000	72.556236
748.500000	72.759390
747.000000	72.947967
745.500000	72.756683
744.000000	72.866890
742.500000	72.693564
741.000000	72.763260
739.500000	72.639048
738.000000	72.675460
736.500000	72.813732
735.000000	72.600902
733.500000	72.473227
732.000000	72.479337
730.500000	72.437696
729.000000	72.420382
727.500000	72.349978
726.000000	72.453291
724.500000	72.308825
723.000000	72.440821
721.500000	72.262533
720.000000	72.249250
718.500000	72.221730
717.000000	72.199920
715.500000	72.160076
714.000000	72.083538
712.500000	71.917020
711.000000	71.931063
709.500000	71.959678
708.000000	71.944977
706.500000	71.886826
705.000000	71.961323
703.500000	71.835935
702.000000	71.757926
700.500000	71.642009
699.000000	71.705201
697.500000	71.765087
696.000000	71.621214
694.500000	71.621604
693.000000	71.526041
691.500000	71.422001
690.000000	71.286883
688.500000	71.425436
687.000000	71.376265
685.500000	71.343670
684.000000	71.343207
682.500000	71.233434
681.000000	71.076774
679.500000	71.045368
678.000000	70.971335
676.500000	70.848622
675.000000	70.920620
673.500000	70.867894
672.000000	70.789844
670.500000	70.746700
669.000000	70.577404
667.500000	70.493438
666.000000	70.432611
664.500000	70.347719
663.000000	70.257607
661.500000	70.192535
660.000000	70.059291
658.500000	69.988509
657.000000	69.865313
655.500000	69.755173
654.000000	69.728566
652.500000	69.572641
651.000000	69.410463
649.500000	69.290633
648.000000	69.190262
646.500000	69.184042
645.000000	69.019277
643.500000	68.863891
642.000000	68.742782
640.500000	68.585492
639.000000	68.504867
637.500000	68.348219
636.000000	68.198847
634.500000	68.083922
633.000000	67.942714
631.500000	67.772622
630.000000	67.603804
628.500000	67.470780
627.000000	67.358184
625.500000	67.243687
624.000000	67.076938
622.500000	66.864242
621.000000	66.759180
619.500000	66.616379
618.000000	66.429534
616.500000	66.245811
615.000000	66.085364
613.500000	65.965855
612.000000	65.779172
610.500000	65.598047
609.000000	65.447098
607.500000	65.282329
606.000000	65.104658
604.500000	64.980709
603.000000	64.851277
601.500000	64.637707
600.000000	64.438714
598.500000	64.290577
597.000000	64.090294
595.500000	63.920120
594.000000	63.772750
592.500000	63.616366
591.000000	63.448299
589.500000	63.275991
588.000000	63.112847
586.500000	62.918322
585.000000	62.756643
583.500000	62.629935
582.000000	62.470261
580.500000	62.274835
579.000000	62.083714
577.500000	61.900410
576.000000	61.726005
574.500000	61.583383
573.000000	61.419278
571.500000	61.222260
570.000000	61.026290
568.500000	60.844804
567.000000	60.689575
565.500000	60.514343
564.000000	60.336202
562.500000	60.178287
561.000000	60.164981
559.500000	60.136368
558.000000	59.967060
556.500000	59.839660
555.000000	59.712247
553.500000	59.563809
552.000000	59.427143
550.500000	59.282725
549.000000	59.125246
547.500000	58.994458
546.000000	58.860842
544.500000	58.733991
543.000000	58.633758
541.500000	58.545099
540.000000	58.437734
538.500000	58.302961
537.000000	58.204969
535.500000	58.088777
534.000000	57.970829
532.500000	57.860459
531.000000	57.763154
529.500000	57.655550
528.000000	57.531032
526.500000	57.405920
525.000000	57.268022
523.500000	57.147390
522.000000	56.985939
520.500000	56.805044
519.000000	56.633875
517.500000	56.419906
516.000000	56.177535
514.500000	55.920030
513.000000	55.603198
511.500000	55.248629
510.000000	54.900357
508.500000	54.567424
507.000000	54.210136
505.500000	53.889259
504.000000	53.566038
502.500000	53.275877
501.000000	53.007135
499.500000	52.756507
498.000000	52.549328
496.500000	52.385943
495.000000	52.229827
493.500000	52.071630
492.000000	51.970024
490.500000	51.926039
489.000000	51.858081
487.500000	51.872405
486.000000	51.900261
484.500000	51.991076
483.000000	52.211999
481.500000	52.512265
480.000000	52.655199
478.500000	52.485118
477.000000	52.278844
475.500000	52.171247
474.000000	52.040776
472.500000	51.870608
471.000000	51.686823
469.500000	51.463040
468.000000	51.188809
466.500000	50.912412
465.000000	50.613446
463.500000	50.306764
462.000000	50.002832
460.500000	49.736381
459.000000	49.508726
457.500000	49.308843
456.000000	49.106099
454.500000	48.934173
453.000000	48.774666
451.500000	48.594713
450.000000	48.497383
448.500000	48.346456
447.000000	48.185756
445.500000	48.030297
444.000000	48.114822
442.500000	48.173170
441.000000	48.039570
439.500000	47.864881
438.000000	47.748060
436.500000	47.631366
435.000000	47.468847
433.500000	47.372101
432.000000	47.224783
430.500000	47.155292
429.000000	47.035556
427.500000	46.865024
426.000000	46.813745
424.500000	46.663591
423.000000	46.564197
421.500000	46.415650
420.000000	46.326028
418.500000	46.253753
417.000000	46.138051
415.500000	46.015590
414.000000	45.925146
412.500000	45.844092
411.000000	45.715175
409.500000	45.598391
408.000000	45.463824
406.500000	45.423231
405.000000	45.382662
403.500000	45.204942
402.000000	45.117613
400.500000	45.079708
399.000000	44.992551
397.500000	44.874029
396.000000	44.792347
394.500000	44.716859
393.000000	44.647076
391.500000	44.530501
390.000000	44.434604
388.500000	44.325337
387.000000	44.265911
385.500000	44.085541
384.000000	44.001973
382.500000	43.898993
381.000000	43.683864
379.500000	43.648104
378.000000	43.610356
376.500000	43.840094
375.000000	44.111056
373.500000	43.533255
372.000000	43.078408
370.500000	42.370531
369.000000	41.761763
367.500000	40.903575
366.000000	39.998557
364.500000	38.925518
363.000000	37.585863
361.500000	36.004848
360.000000	34.068570
358.500000	31.814137
357.000000	29.116543
355.500000	26.177216
354.000000	22.850596
352.500000	19.346766
351.000000	15.688484
349.500000	12.301657
348.000000	9.044157
346.500000	6.201303
345.000000	3.887741
343.500000	2.230946
342.000000	1.111390
340.500000	0.480939
339.000000	0.138353
337.500000	-0.002694
336.000000	-0.032156
334.500000	-0.047888
333.000000	-0.054718
331.500000	-0.046814
330.000000	-0.042502
328.500000	-0.027339
327.000000	-0.041969
325.500000	-0.034424
324.000000	-0.032982
322.500000	-0.035617
321.000000	-0.040900
319.500000	-0.026474
318.000000	0.009418
316.500000	-0.021913
315.000000	-0.025714
313.500000	-0.020136
312.000000	-0.032801
310.500000	-0.027362
309.000000	-0.021647
307.500000	-0.014852
306.000000	-0.007686
304.500000	-0.001899
303.000000	-0.006276
301.500000	-0.012186
300.000000	-0.007147
