PE UV       SUBTECH     SPECTRUM    ASCII       PEDS        4.00        
   -1
Sample320.Sample.Processed.asc
21/03/25
15:36:43.00
21/03/25
15:36:43.00
Administrator

300.000000
1
Lambda 850
850L1710193
PerkinElmer UV WinLab 6.4.0.973 / 2.02.06 Lambda 800 UV/VIS, Jan 28 2016 16:58:34

0
0
2
0
0
UV/VIS
1
1
1
RBeamAtt,SBeamAtt,60mm sphere
0
0
0
0
Fix
 
0
0.2
0
0
0
 
 
 
0
 
0
340
0
Front
100
 
S:100 R:100
 
0
0
0
 
0
 
 
 
0
 
 
0
0
0
0
0
 
 
 
 
0
0


0
0
#HDR
-1
-1
#GR
nm
%T
1.0
0.0
750.000000
-1.500000
301
8
70.374783
-0.044052
#DATA
750.000000	70.134590
748.500000	70.374783
747.000000	70.323787
745.500000	70.295094
744.000000	70.233354
742.500000	70.123490
741.000000	70.196077
739.500000	70.130819
738.000000	70.171063
736.500000	70.185751
735.000000	70.113566
733.500000	69.970837
732.000000	69.907948
730.500000	69.947334
729.000000	69.864262
727.500000	69.780822
726.000000	69.784471
724.500000	69.658241
723.000000	69.905433
721.500000	69.843522
720.000000	69.790201
718.500000	69.784826
717.000000	69.688753
715.500000	69.720214
714.000000	69.606447
712.500000	69.454687
711.000000	69.518099
709.500000	69.589276
708.000000	69.485042
706.500000	69.485310
705.000000	69.568575
703.500000	69.468865
702.000000	69.463711
700.500000	69.416384
699.000000	69.330393
697.500000	69.387415
696.000000	69.250675
694.500000	69.231254
693.000000	69.226826
691.500000	69.061462
690.000000	68.976747
688.500000	69.164946
687.000000	69.131703
685.500000	69.102950
684.000000	69.092886
682.500000	68.965297
681.000000	68.903993
679.500000	68.833644
678.000000	68.725631
676.500000	68.685013
675.000000	68.655301
673.500000	68.595850
672.000000	68.575282
670.500000	68.473885
669.000000	68.329189
667.500000	68.308147
666.000000	68.229871
664.500000	68.129918
663.000000	67.992542
661.500000	68.032310
660.000000	67.905315
658.500000	67.705414
657.000000	67.698812
655.500000	67.602314
654.000000	67.488858
652.500000	67.386005
651.000000	67.279443
649.500000	67.153681
648.000000	67.051238
646.500000	66.991957
645.000000	66.808244
643.500000	66.719129
642.000000	66.622599
640.500000	66.534504
639.000000	66.368173
637.500000	66.230410
636.000000	66.121969
634.500000	65.975804
633.000000	65.867015
631.500000	65.714658
630.000000	65.541739
628.500000	65.442683
627.000000	65.300537
625.500000	65.164879
624.000000	65.036359
622.500000	64.852635
621.000000	64.725996
619.500000	64.600124
618.000000	64.396158
616.500000	64.242517
615.000000	64.082368
613.500000	63.977259
612.000000	63.796838
610.500000	63.609372
609.000000	63.494643
607.500000	63.344962
606.000000	63.166074
604.500000	63.004311
603.000000	62.865116
601.500000	62.688556
600.000000	62.541450
598.500000	62.437688
597.000000	62.257317
595.500000	62.070625
594.000000	61.930893
592.500000	61.753705
591.000000	61.614939
589.500000	61.462605
588.000000	61.277353
586.500000	61.121382
585.000000	60.963530
583.500000	60.810162
582.000000	60.655285
580.500000	60.490286
579.000000	60.314802
577.500000	60.146406
576.000000	60.013560
574.500000	59.850027
573.000000	59.688306
571.500000	59.519474
570.000000	59.352982
568.500000	59.209977
567.000000	59.054072
565.500000	58.866044
564.000000	58.706607
562.500000	58.556460
561.000000	58.522606
559.500000	58.478514
558.000000	58.322625
556.500000	58.199482
555.000000	58.079435
553.500000	57.920035
552.000000	57.788060
550.500000	57.648175
549.000000	57.487250
547.500000	57.372160
546.000000	57.234393
544.500000	57.079442
543.000000	56.957635
541.500000	56.861962
540.000000	56.711330
538.500000	56.561968
537.000000	56.463368
535.500000	56.352594
534.000000	56.225768
532.500000	56.119547
531.000000	56.000975
529.500000	55.879755
528.000000	55.760201
526.500000	55.646293
525.000000	55.516379
523.500000	55.384415
522.000000	55.241644
520.500000	55.097605
519.000000	54.964494
517.500000	54.802549
516.000000	54.635012
514.500000	54.454072
513.000000	54.240118
511.500000	54.014557
510.000000	53.813344
508.500000	53.662576
507.000000	53.490643
505.500000	53.386974
504.000000	53.326406
502.500000	53.344590
501.000000	53.381972
499.500000	53.440620
498.000000	53.586950
496.500000	53.753506
495.000000	53.877252
493.500000	54.043465
492.000000	54.197943
490.500000	54.332394
489.000000	54.416348
487.500000	54.492781
486.000000	54.539789
484.500000	54.637143
483.000000	54.748682
481.500000	54.832333
480.000000	54.732948
478.500000	54.426942
477.000000	54.144215
475.500000	53.980584
474.000000	53.844103
472.500000	53.672566
471.000000	53.501183
469.500000	53.316638
468.000000	53.146210
466.500000	52.950631
465.000000	52.756920
463.500000	52.609998
462.000000	52.477150
460.500000	52.382729
459.000000	52.355802
457.500000	52.364666
456.000000	52.372668
454.500000	52.397766
453.000000	52.488953
451.500000	52.532020
450.000000	52.602089
448.500000	52.635521
447.000000	52.652179
445.500000	52.740680
444.000000	52.880916
442.500000	52.923953
441.000000	52.895801
439.500000	52.777101
438.000000	52.735075
436.500000	52.656937
435.000000	52.576097
433.500000	52.533479
432.000000	52.449455
430.500000	52.374350
429.000000	52.333503
427.500000	52.224706
426.000000	52.151236
424.500000	52.082319
423.000000	51.983238
421.500000	51.915878
420.000000	51.892632
418.500000	51.812569
417.000000	51.678610
415.500000	51.600714
414.000000	51.556055
412.500000	51.483458
411.000000	51.361659
409.500000	51.293477
408.000000	51.177146
406.500000	51.158003
405.000000	51.042594
403.500000	50.967182
402.000000	50.875415
400.500000	50.858519
399.000000	50.755776
397.500000	50.676188
396.000000	50.589439
394.500000	50.495444
393.000000	50.420075
391.500000	50.326080
390.000000	50.195955
388.500000	50.089852
387.000000	50.008104
385.500000	49.894654
384.000000	49.758382
382.500000	49.597532
381.000000	49.487025
379.500000	49.167447
378.000000	48.944692
376.500000	49.391275
375.000000	49.508156
373.500000	48.800479
372.000000	48.001564
370.500000	47.090846
369.000000	46.102625
367.500000	44.814478
366.000000	43.367403
364.500000	41.675431
363.000000	39.587746
361.500000	37.054998
360.000000	34.170071
358.500000	30.791186
357.000000	27.012522
355.500000	23.008928
354.000000	18.722251
352.500000	14.614932
351.000000	10.759258
349.500000	7.462501
348.000000	4.847380
346.500000	2.956763
345.000000	1.677314
343.500000	0.905810
342.000000	0.451808
340.500000	0.206355
339.000000	0.039675
337.500000	-0.022850
336.000000	-0.044052
334.500000	-0.028323
333.000000	-0.030244
331.500000	-0.028852
330.000000	-0.022512
328.500000	-0.027432
327.000000	-0.029845
325.500000	-0.041141
324.000000	-0.035225
322.500000	-0.031316
321.000000	-0.029762
319.500000	-0.028719
318.000000	-0.004709
316.500000	-0.031223
315.000000	-0.027033
313.500000	-0.036226
312.000000	-0.025261
310.500000	-0.025947
309.000000	-0.019095
307.500000	-0.012108
306.000000	-0.008445
304.500000	-0.001994
303.000000	-0.005515
301.500000	-0.012186
300.000000	-0.009148
