PE UV       SUBTECH     SPECTRUM    ASCII       PEDS        4.00        
   -1
Sample186.Sample.Raw.asc
21/01/28
12:34:40.00
21/01/28
12:34:40.00
Administrator

300.000000
1
Lambda 850
850L1710193
PerkinElmer UV WinLab 6.4.0.973 / 2.02.06 Lambda 800 UV/VIS, Jan 28 2016 16:58:34

0
0
2
0
0
UV/VIS
1
1
1
RBeamAtt,SBeamAtt,60mm sphere
0
0
0
0
Fix
 
0
0.2
0
0
0
 
 
 
0
 
0
319.2
0
Front
100
 
S:100 R:100
 
0
0
0
 
0
 
 
 
0
 
 
0
0
0
0
0
 
 
 
 
0
0


0
0
#HDR
-1
-1
#GR
nm
%T
1.0
0.0
750.000000
-1.500000
301
8
74.905224
-0.029270
#DATA
750.000000	74.533824
748.500000	74.851270
747.000000	74.709098
745.500000	74.905224
744.000000	74.859396
742.500000	74.631704
741.000000	74.718694
739.500000	74.694663
738.000000	74.598641
736.500000	74.854897
735.000000	74.705729
733.500000	74.720581
732.000000	74.731535
730.500000	74.729592
729.000000	74.631849
727.500000	74.693546
726.000000	74.560843
724.500000	74.684492
723.000000	74.651443
721.500000	74.662387
720.000000	74.547857
718.500000	74.545975
717.000000	74.653771
715.500000	74.692346
714.000000	74.579252
712.500000	74.530516
711.000000	74.548088
709.500000	74.392875
708.000000	74.430208
706.500000	74.443599
705.000000	74.282185
703.500000	74.470891
702.000000	74.446866
700.500000	74.482688
699.000000	74.443499
697.500000	74.319089
696.000000	74.359969
694.500000	74.360933
693.000000	74.283544
691.500000	74.228363
690.000000	74.183438
688.500000	74.357314
687.000000	74.237684
685.500000	74.333136
684.000000	74.284196
682.500000	74.188266
681.000000	74.232878
679.500000	74.263237
678.000000	74.236960
676.500000	74.182956
675.000000	74.196048
673.500000	74.174842
672.000000	74.155669
670.500000	74.082197
669.000000	74.128238
667.500000	74.088648
666.000000	74.104258
664.500000	74.127965
663.000000	74.123234
661.500000	74.043181
660.000000	73.970024
658.500000	73.944809
657.000000	73.988920
655.500000	73.850825
654.000000	73.855110
652.500000	73.904614
651.000000	73.895640
649.500000	73.842128
648.000000	73.934416
646.500000	73.857631
645.000000	73.826309
643.500000	73.769133
642.000000	73.766565
640.500000	73.797782
639.000000	73.746351
637.500000	73.713019
636.000000	73.739654
634.500000	73.704586
633.000000	73.662889
631.500000	73.629493
630.000000	73.527925
628.500000	73.547268
627.000000	73.557880
625.500000	73.556034
624.000000	73.508871
622.500000	73.469544
621.000000	73.500023
619.500000	73.470054
618.000000	73.468928
616.500000	73.421096
615.000000	73.416123
613.500000	73.369207
612.000000	73.319323
610.500000	73.343038
609.000000	73.295268
607.500000	73.243604
606.000000	73.204230
604.500000	73.158838
603.000000	73.157604
601.500000	73.168097
600.000000	73.117918
598.500000	73.091795
597.000000	73.071636
595.500000	73.025629
594.000000	73.037880
592.500000	73.016362
591.000000	72.974561
589.500000	72.980265
588.000000	72.973176
586.500000	72.922744
585.000000	72.876357
583.500000	72.865477
582.000000	72.865758
580.500000	72.852613
579.000000	72.811881
577.500000	72.755970
576.000000	72.722359
574.500000	72.728601
573.000000	72.719102
571.500000	72.641972
570.000000	72.584617
568.500000	72.540172
567.000000	72.503581
565.500000	72.463578
564.000000	72.401408
562.500000	72.392462
561.000000	72.524670
559.500000	72.659387
558.000000	72.654167
556.500000	72.636974
555.000000	72.653503
553.500000	72.611962
552.000000	72.540352
550.500000	72.509986
549.000000	72.496297
547.500000	72.528990
546.000000	72.565573
544.500000	72.553640
543.000000	72.528019
541.500000	72.504374
540.000000	72.511708
538.500000	72.519124
537.000000	72.512859
535.500000	72.529986
534.000000	72.565572
532.500000	72.528015
531.000000	72.493956
529.500000	72.492026
528.000000	72.507330
526.500000	72.525606
525.000000	72.500109
523.500000	72.448447
522.000000	72.386272
520.500000	72.332545
519.000000	72.233960
517.500000	72.120174
516.000000	71.977672
514.500000	71.783811
513.000000	71.565822
511.500000	71.337300
510.000000	71.108602
508.500000	70.838013
507.000000	70.601670
505.500000	70.386793
504.000000	70.248991
502.500000	70.119053
501.000000	70.033264
499.500000	70.022557
498.000000	70.045142
496.500000	70.048811
495.000000	70.104429
493.500000	70.222580
492.000000	70.381398
490.500000	70.500895
489.000000	70.591198
487.500000	70.732578
486.000000	70.876820
484.500000	71.045189
483.000000	71.433253
481.500000	71.809664
480.000000	71.953589
478.500000	71.807901
477.000000	71.568662
475.500000	71.437525
474.000000	71.368324
472.500000	71.261837
471.000000	71.122390
469.500000	70.918977
468.000000	70.724659
466.500000	70.486140
465.000000	70.217306
463.500000	69.957254
462.000000	69.748728
460.500000	69.617105
459.000000	69.488025
457.500000	69.378893
456.000000	69.370786
454.500000	69.292035
453.000000	69.201222
451.500000	69.158730
450.000000	69.189720
448.500000	69.182683
447.000000	69.113625
445.500000	69.151183
444.000000	69.425083
442.500000	69.615572
441.000000	69.482467
439.500000	69.405308
438.000000	69.375266
436.500000	69.299093
435.000000	69.260131
433.500000	69.205879
432.000000	69.097649
430.500000	69.026295
429.000000	68.963309
427.500000	68.934449
426.000000	68.865479
424.500000	68.764885
423.000000	68.740573
421.500000	68.635908
420.000000	68.564225
418.500000	68.468350
417.000000	68.418888
415.500000	68.332156
414.000000	68.248803
412.500000	68.174023
411.000000	68.083082
409.500000	68.073185
408.000000	67.944650
406.500000	67.872886
405.000000	67.769948
403.500000	67.732509
402.000000	67.579534
400.500000	67.488816
399.000000	67.445191
397.500000	67.311492
396.000000	67.153413
394.500000	67.141819
393.000000	67.046679
391.500000	66.973275
390.000000	66.781626
388.500000	66.612464
387.000000	66.528770
385.500000	66.311691
384.000000	66.192951
382.500000	65.967045
381.000000	65.693821
379.500000	65.484375
378.000000	65.430138
376.500000	66.172919
375.000000	66.138288
373.500000	65.346667
372.000000	64.551968
370.500000	63.601705
369.000000	62.529685
367.500000	61.310148
366.000000	60.071178
364.500000	58.227930
363.000000	56.301552
361.500000	53.950135
360.000000	51.014938
358.500000	47.679658
357.000000	43.710499
355.500000	39.403252
354.000000	34.478674
352.500000	29.283515
351.000000	23.907808
349.500000	18.668699
348.000000	13.787709
346.500000	9.513770
345.000000	6.022183
343.500000	3.456894
342.000000	1.737942
340.500000	0.765293
339.000000	0.291462
337.500000	0.106956
336.000000	0.051580
334.500000	0.039941
333.000000	0.037751
331.500000	0.036207
330.000000	0.039269
328.500000	0.051265
327.000000	0.046461
325.500000	0.042247
324.000000	0.047799
322.500000	0.050219
321.000000	0.047537
319.500000	0.048318
318.000000	0.008846
316.500000	-0.016718
315.000000	-0.024897
313.500000	-0.024637
312.000000	-0.029270
310.500000	-0.026101
309.000000	-0.021584
307.500000	-0.014263
306.000000	-0.007954
304.500000	-0.005877
303.000000	-0.009017
301.500000	-0.012077
300.000000	-0.011317
