PE UV       SUBTECH     SPECTRUM    ASCII       PEDS        4.00        
   -1
Sample294.Sample.Raw.asc
21/02/15
14:39:24.00
21/02/15
14:39:24.00
Administrator

300.000000
1
Lambda 850
850L1710193
PerkinElmer UV WinLab 6.4.0.973 / 2.02.06 Lambda 800 UV/VIS, Jan 28 2016 16:58:34

0
0
2
0
0
UV/VIS
1
1
1
RBeamAtt,SBeamAtt,60mm sphere
0
0
0
0
Fix
 
0
0.2
0
0
0
 
 
 
0
 
0
319.2
0
Front
100
 
S:100 R:100
 
0
0
0
 
0
 
 
 
0
 
 
0
0
0
0
0
 
 
 
 
0
0


0
0
#HDR
-1
-1
#GR
nm
%T
1.0
0.0
750.000000
-1.500000
301
8
73.618736
-0.030968
#DATA
750.000000	73.432657
748.500000	73.563183
747.000000	73.618736
745.500000	73.581180
744.000000	73.575896
742.500000	73.395632
741.000000	73.478371
739.500000	73.456912
738.000000	73.388050
736.500000	73.473750
735.000000	73.390992
733.500000	73.283831
732.000000	73.362715
730.500000	73.397625
729.000000	73.350783
727.500000	73.271248
726.000000	73.361689
724.500000	73.304741
723.000000	73.243809
721.500000	73.168277
720.000000	73.253629
718.500000	73.285488
717.000000	73.207203
715.500000	73.120892
714.000000	73.125865
712.500000	73.028924
711.000000	72.933428
709.500000	72.988390
708.000000	73.101298
706.500000	73.043198
705.000000	72.990855
703.500000	72.899385
702.000000	73.003559
700.500000	72.974945
699.000000	72.995225
697.500000	72.822486
696.000000	72.799457
694.500000	72.853942
693.000000	72.781512
691.500000	72.698808
690.000000	72.553170
688.500000	72.720185
687.000000	72.702878
685.500000	72.723442
684.000000	72.675866
682.500000	72.644296
681.000000	72.597522
679.500000	72.514867
678.000000	72.545180
676.500000	72.517105
675.000000	72.507872
673.500000	72.441998
672.000000	72.419427
670.500000	72.379488
669.000000	72.321894
667.500000	72.260159
666.000000	72.244537
664.500000	72.253628
663.000000	72.239906
661.500000	72.165932
660.000000	72.096773
658.500000	72.056384
657.000000	71.994346
655.500000	71.935069
654.000000	71.948741
652.500000	71.917736
651.000000	71.850681
649.500000	71.755543
648.000000	71.623280
646.500000	71.606766
645.000000	71.579191
643.500000	71.518044
642.000000	71.435600
640.500000	71.436795
639.000000	71.327926
637.500000	71.273525
636.000000	71.205546
634.500000	71.074975
633.000000	70.990707
631.500000	70.950965
630.000000	70.941626
628.500000	70.810439
627.000000	70.684973
625.500000	70.641128
624.000000	70.633349
622.500000	70.540858
621.000000	70.475696
619.500000	70.398738
618.000000	70.326830
616.500000	70.276581
615.000000	70.193797
613.500000	70.127087
612.000000	69.980467
610.500000	69.896901
609.000000	69.824449
607.500000	69.770219
606.000000	69.733555
604.500000	69.615682
603.000000	69.539628
601.500000	69.424668
600.000000	69.382127
598.500000	69.332673
597.000000	69.246995
595.500000	69.162479
594.000000	69.046963
592.500000	68.920081
591.000000	68.876152
589.500000	68.783782
588.000000	68.709967
586.500000	68.636320
585.000000	68.557682
583.500000	68.507398
582.000000	68.415711
580.500000	68.336782
579.000000	68.229219
577.500000	68.143396
576.000000	68.082109
574.500000	67.978242
573.000000	67.894511
571.500000	67.844880
570.000000	67.773681
568.500000	67.685561
567.000000	67.618440
565.500000	67.528294
564.000000	67.404412
562.500000	67.359243
561.000000	67.433272
559.500000	67.487960
558.000000	67.445470
556.500000	67.385264
555.000000	67.318455
553.500000	67.294531
552.000000	67.261593
550.500000	67.168625
549.000000	67.100160
547.500000	67.083097
546.000000	67.057495
544.500000	67.031723
543.000000	66.968549
541.500000	66.871526
540.000000	66.847299
538.500000	66.841950
537.000000	66.823477
535.500000	66.813166
534.000000	66.784688
532.500000	66.734778
531.000000	66.695970
529.500000	66.677015
528.000000	66.643513
526.500000	66.606949
525.000000	66.562980
523.500000	66.504147
522.000000	66.441546
520.500000	66.367930
519.000000	66.238093
517.500000	66.098100
516.000000	65.948449
514.500000	65.735954
513.000000	65.478725
511.500000	65.220255
510.000000	64.960603
508.500000	64.683969
507.000000	64.412452
505.500000	64.147256
504.000000	63.912753
502.500000	63.722460
501.000000	63.611369
499.500000	63.525331
498.000000	63.425734
496.500000	63.364591
495.000000	63.344279
493.500000	63.315896
492.000000	63.355766
490.500000	63.399530
489.000000	63.459311
487.500000	63.551541
486.000000	63.648091
484.500000	63.892663
483.000000	64.278780
481.500000	64.582466
480.000000	64.787435
478.500000	64.662621
477.000000	64.451984
475.500000	64.373167
474.000000	64.323191
472.500000	64.223291
471.000000	64.078765
469.500000	63.859294
468.000000	63.636098
466.500000	63.422448
465.000000	63.137251
463.500000	62.853963
462.000000	62.611969
460.500000	62.381805
459.000000	62.223906
457.500000	62.065325
456.000000	61.950076
454.500000	61.858535
453.000000	61.733561
451.500000	61.615657
450.000000	61.501962
448.500000	61.446340
447.000000	61.341434
445.500000	61.276344
444.000000	61.456000
442.500000	61.573561
441.000000	61.457852
439.500000	61.358698
438.000000	61.224253
436.500000	61.126648
435.000000	61.054837
433.500000	60.990017
432.000000	60.869727
430.500000	60.760566
429.000000	60.670218
427.500000	60.549137
426.000000	60.459743
424.500000	60.352347
423.000000	60.277961
421.500000	60.073783
420.000000	60.015692
418.500000	59.954695
417.000000	59.800262
415.500000	59.668997
414.000000	59.599089
412.500000	59.538355
411.000000	59.327940
409.500000	59.286781
408.000000	59.151062
406.500000	59.015161
405.000000	58.937372
403.500000	58.846318
402.000000	58.745684
400.500000	58.620349
399.000000	58.512775
397.500000	58.358565
396.000000	58.285390
394.500000	58.218716
393.000000	58.055071
391.500000	57.914559
390.000000	57.783441
388.500000	57.671269
387.000000	57.536793
385.500000	57.428327
384.000000	57.236316
382.500000	57.108638
381.000000	56.951522
379.500000	56.659099
378.000000	56.470627
376.500000	57.106188
375.000000	57.202759
373.500000	56.521521
372.000000	55.742064
370.500000	55.106146
369.000000	54.203239
367.500000	53.361059
366.000000	52.231622
364.500000	50.819480
363.000000	49.400030
361.500000	47.529228
360.000000	45.173589
358.500000	42.558778
357.000000	39.636832
355.500000	36.067965
354.000000	32.165676
352.500000	27.878609
351.000000	23.313013
349.500000	18.816332
348.000000	14.386883
346.500000	10.386636
345.000000	6.956171
343.500000	4.262213
342.000000	2.322800
340.500000	1.127693
339.000000	0.469959
337.500000	0.176633
336.000000	0.067641
334.500000	0.040925
333.000000	0.045526
331.500000	0.034836
330.000000	0.039433
328.500000	0.041876
327.000000	0.048486
325.500000	0.044776
324.000000	0.043550
322.500000	0.044575
321.000000	0.051620
319.500000	0.040575
318.000000	0.005186
316.500000	-0.022398
315.000000	-0.025247
313.500000	-0.028111
312.000000	-0.030968
310.500000	-0.023071
309.000000	-0.020545
307.500000	-0.011948
306.000000	-0.007889
304.500000	-0.006189
303.000000	-0.005242
301.500000	-0.014115
300.000000	-0.014317
