PE UV       SUBTECH     SPECTRUM    ASCII       PEDS        4.00        
   -1
Sample12.Sample.Raw.asc
21/03/30
11:42:37.00
21/03/30
11:42:37.00
Administrator

300.000000
1
Lambda 850
850L1710193
PerkinElmer UV WinLab 6.4.0.973 / 2.02.06 Lambda 800 UV/VIS, Jan 28 2016 16:58:34

0
0
2
0
0
UV/VIS
1
1
1
RBeamAtt,SBeamAtt,60mm sphere
0
0
0
0
Fix
 
0
0.2
0
0
0
 
 
 
0
 
0
340
0
Front
100
 
S:100 R:100
 
0
0
0
 
0
 
 
 
0
 
 
0
0
0
0
0
 
 
 
 
0
0


0
0
#HDR
-1
-1
#GR
nm
%T
1.0
0.0
750.000000
-1.500000
301
8
74.684984
-0.031484
#DATA
750.000000	74.169288
748.500000	74.440829
747.000000	74.684984
745.500000	74.445788
744.000000	74.466451
742.500000	74.479200
741.000000	74.441567
739.500000	74.369954
738.000000	74.535067
736.500000	74.385558
735.000000	74.277054
733.500000	74.309897
732.000000	74.564507
730.500000	74.522430
729.000000	74.281335
727.500000	74.347782
726.000000	74.299928
724.500000	74.221414
723.000000	74.276935
721.500000	74.281565
720.000000	74.221522
718.500000	74.294102
717.000000	74.273837
715.500000	74.150349
714.000000	74.163610
712.500000	74.213059
711.000000	74.199764
709.500000	74.122914
708.000000	74.169563
706.500000	74.044487
705.000000	74.066647
703.500000	74.042427
702.000000	74.089129
700.500000	74.027891
699.000000	74.042645
697.500000	74.050470
696.000000	74.052933
694.500000	74.008523
693.000000	73.953101
691.500000	73.883945
690.000000	73.848388
688.500000	73.876584
687.000000	73.822527
685.500000	73.812624
684.000000	73.926779
682.500000	73.780865
681.000000	73.822906
679.500000	73.883813
678.000000	73.855758
676.500000	73.793152
675.000000	73.726154
673.500000	73.655636
672.000000	73.693805
670.500000	73.689293
669.000000	73.645267
667.500000	73.579174
666.000000	73.594526
664.500000	73.496821
663.000000	73.494225
661.500000	73.504656
660.000000	73.457842
658.500000	73.456351
657.000000	73.442168
655.500000	73.367897
654.000000	73.401295
652.500000	73.283570
651.000000	73.237877
649.500000	73.190929
648.000000	73.218140
646.500000	73.095920
645.000000	73.128627
643.500000	73.123161
642.000000	73.072019
640.500000	73.065072
639.000000	73.026435
637.500000	72.921032
636.000000	72.870082
634.500000	72.830657
633.000000	72.798768
631.500000	72.748485
630.000000	72.673630
628.500000	72.657427
627.000000	72.607798
625.500000	72.558286
624.000000	72.430095
622.500000	72.423016
621.000000	72.391117
619.500000	72.338216
618.000000	72.258194
616.500000	72.207171
615.000000	72.196793
613.500000	72.097935
612.000000	72.014972
610.500000	72.013453
609.000000	72.002694
607.500000	71.921056
606.000000	71.838725
604.500000	71.777338
603.000000	71.738467
601.500000	71.677267
600.000000	71.645747
598.500000	71.580044
597.000000	71.521422
595.500000	71.491114
594.000000	71.414143
592.500000	71.344461
591.000000	71.290719
589.500000	71.259143
588.000000	71.216119
586.500000	71.150191
585.000000	71.109768
583.500000	70.999537
582.000000	70.953260
580.500000	70.950689
579.000000	70.951013
577.500000	70.888888
576.000000	70.824891
574.500000	70.766432
573.000000	70.655099
571.500000	70.606524
570.000000	70.579173
568.500000	70.488465
567.000000	70.398416
565.500000	70.359086
564.000000	70.303329
562.500000	70.227578
561.000000	70.339549
559.500000	70.472803
558.000000	70.460695
556.500000	70.397924
555.000000	70.326650
553.500000	70.288824
552.000000	70.259614
550.500000	70.223599
549.000000	70.178471
547.500000	70.164993
546.000000	70.141030
544.500000	70.125777
543.000000	70.114038
541.500000	70.097270
540.000000	70.064796
538.500000	70.038609
537.000000	70.056582
535.500000	70.059236
534.000000	70.047266
532.500000	70.018837
531.000000	69.986358
529.500000	69.951388
528.000000	69.935409
526.500000	69.930486
525.000000	69.899819
523.500000	69.847506
522.000000	69.777882
520.500000	69.715101
519.000000	69.609113
517.500000	69.481668
516.000000	69.318745
514.500000	69.132094
513.000000	68.912329
511.500000	68.659010
510.000000	68.383626
508.500000	68.126488
507.000000	67.891069
505.500000	67.615228
504.000000	67.414821
502.500000	67.264660
501.000000	67.162797
499.500000	67.119274
498.000000	67.078925
496.500000	67.075660
495.000000	67.095445
493.500000	67.136161
492.000000	67.191295
490.500000	67.256371
489.000000	67.324714
487.500000	67.425224
486.000000	67.580361
484.500000	67.753307
483.000000	68.143026
481.500000	68.575497
480.000000	68.781116
478.500000	68.590207
477.000000	68.376563
475.500000	68.237659
474.000000	68.187549
472.500000	68.074723
471.000000	67.932887
469.500000	67.768549
468.000000	67.546244
466.500000	67.291958
465.000000	67.005887
463.500000	66.757625
462.000000	66.479574
460.500000	66.294203
459.000000	66.171865
457.500000	66.033773
456.000000	65.918632
454.500000	65.823182
453.000000	65.796139
451.500000	65.726371
450.000000	65.637095
448.500000	65.578770
447.000000	65.509843
445.500000	65.465235
444.000000	65.741626
442.500000	65.880098
441.000000	65.783486
439.500000	65.582748
438.000000	65.512639
436.500000	65.386236
435.000000	65.332303
433.500000	65.216981
432.000000	65.085707
430.500000	65.035578
429.000000	64.937254
427.500000	64.889753
426.000000	64.783252
424.500000	64.715809
423.000000	64.517053
421.500000	64.446756
420.000000	64.465735
418.500000	64.353176
417.000000	64.267607
415.500000	64.174122
414.000000	64.015569
412.500000	63.923660
411.000000	63.879223
409.500000	63.700948
408.000000	63.641441
406.500000	63.531080
405.000000	63.443787
403.500000	63.359150
402.000000	63.258700
400.500000	63.051398
399.000000	63.021580
397.500000	62.849965
396.000000	62.778225
394.500000	62.733252
393.000000	62.562695
391.500000	62.432826
390.000000	62.275459
388.500000	62.169088
387.000000	62.024911
385.500000	61.884450
384.000000	61.661263
382.500000	61.436714
381.000000	61.375672
379.500000	61.013572
378.000000	60.940952
376.500000	61.442230
375.000000	61.787986
373.500000	60.955814
372.000000	60.111227
370.500000	59.351536
369.000000	58.349918
367.500000	57.511075
366.000000	56.192441
364.500000	54.772793
363.000000	53.069257
361.500000	51.171867
360.000000	48.712447
358.500000	45.849604
357.000000	42.528834
355.500000	38.690605
354.000000	34.467315
352.500000	29.834417
351.000000	24.888627
349.500000	20.107182
348.000000	15.320176
346.500000	11.030722
345.000000	7.364053
343.500000	4.493383
342.000000	2.452107
340.500000	1.160202
339.000000	0.439283
337.500000	0.102492
336.000000	-0.003436
334.500000	-0.029272
333.000000	-0.029880
331.500000	-0.027867
330.000000	-0.027138
328.500000	-0.020032
327.000000	-0.024620
325.500000	-0.031484
324.000000	-0.025980
322.500000	-0.029320
321.000000	-0.021046
319.500000	-0.022194
318.000000	0.002071
316.500000	-0.022570
315.000000	-0.028127
313.500000	-0.027886
312.000000	-0.024485
310.500000	-0.022727
309.000000	-0.017087
307.500000	-0.012580
306.000000	-0.002652
304.500000	0.001996
303.000000	-0.003612
301.500000	-0.008943
300.000000	-0.009804
