PE UV       SUBTECH     SPECTRUM    ASCII       PEDS        4.00        
   -1
Sample8.Sample.Raw.asc
21/03/26
11:49:21.00
21/03/26
11:49:21.00
Administrator

300.000000
1
Lambda 850
850L1710193
PerkinElmer UV WinLab 6.4.0.973 / 2.02.06 Lambda 800 UV/VIS, Jan 28 2016 16:58:34

0
0
2
0
0
UV/VIS
1
1
1
RBeamAtt,SBeamAtt,60mm sphere
0
0
0
0
Fix
 
0
0.2
0
0
0
 
 
 
0
 
0
340
0
Front
100
 
S:100 R:100
 
0
0
0
 
0
 
 
 
0
 
 
0
0
0
0
0
 
 
 
 
0
0


0
0
#HDR
-1
-1
#GR
nm
%T
1.0
0.0
750.000000
-1.500000
301
8
74.338032
-0.044882
#DATA
750.000000	74.017795
748.500000	74.201615
747.000000	74.081688
745.500000	74.216765
744.000000	74.191331
742.500000	74.283566
741.000000	74.209350
739.500000	74.338032
738.000000	74.208555
736.500000	74.196365
735.000000	74.201428
733.500000	74.334221
732.000000	74.153418
730.500000	74.027759
729.000000	74.060608
727.500000	74.124401
726.000000	74.155793
724.500000	73.981430
723.000000	74.094583
721.500000	74.077924
720.000000	74.008396
718.500000	74.125071
717.000000	74.080746
715.500000	74.018329
714.000000	74.052837
712.500000	74.053949
711.000000	74.046325
709.500000	74.048885
708.000000	74.007993
706.500000	74.070053
705.000000	74.018053
703.500000	73.893599
702.000000	73.989616
700.500000	74.041510
699.000000	73.988739
697.500000	73.985912
696.000000	73.843663
694.500000	73.853392
693.000000	73.847363
691.500000	73.808479
690.000000	73.646407
688.500000	73.801112
687.000000	73.755676
685.500000	73.838546
684.000000	73.815058
682.500000	73.855863
681.000000	73.821124
679.500000	73.766389
678.000000	73.722643
676.500000	73.702561
675.000000	73.701999
673.500000	73.732287
672.000000	73.673065
670.500000	73.745404
669.000000	73.686034
667.500000	73.652479
666.000000	73.676730
664.500000	73.687492
663.000000	73.645057
661.500000	73.569822
660.000000	73.616217
658.500000	73.543320
657.000000	73.632363
655.500000	73.550082
654.000000	73.535179
652.500000	73.529833
651.000000	73.505697
649.500000	73.448094
648.000000	73.492980
646.500000	73.472449
645.000000	73.445522
643.500000	73.444175
642.000000	73.396373
640.500000	73.329031
639.000000	73.360872
637.500000	73.383521
636.000000	73.350220
634.500000	73.347260
633.000000	73.331076
631.500000	73.273837
630.000000	73.269686
628.500000	73.286850
627.000000	73.199454
625.500000	73.158437
624.000000	73.166831
622.500000	73.133152
621.000000	73.144896
619.500000	73.150137
618.000000	73.093007
616.500000	73.076939
615.000000	73.081894
613.500000	72.987850
612.000000	73.000204
610.500000	72.994261
609.000000	72.978626
607.500000	72.946090
606.000000	72.907557
604.500000	72.942311
603.000000	72.928063
601.500000	72.863319
600.000000	72.823696
598.500000	72.839842
597.000000	72.820437
595.500000	72.797553
594.000000	72.739352
592.500000	72.714857
591.000000	72.745175
589.500000	72.722056
588.000000	72.693878
586.500000	72.673130
585.000000	72.672192
583.500000	72.632740
582.000000	72.581207
580.500000	72.556004
579.000000	72.546658
577.500000	72.511253
576.000000	72.478575
574.500000	72.414952
573.000000	72.373741
571.500000	72.335569
570.000000	72.254462
568.500000	72.234898
567.000000	72.256299
565.500000	72.198163
564.000000	72.147604
562.500000	72.190349
561.000000	72.326871
559.500000	72.377269
558.000000	72.370539
556.500000	72.374157
555.000000	72.331141
553.500000	72.268528
552.000000	72.269062
550.500000	72.252895
549.000000	72.190587
547.500000	72.188499
546.000000	72.175313
544.500000	72.154588
543.000000	72.141393
541.500000	72.099170
540.000000	72.068001
538.500000	72.041580
537.000000	71.997418
535.500000	71.979875
534.000000	72.013177
532.500000	72.032928
531.000000	72.000700
529.500000	71.979154
528.000000	71.937045
526.500000	71.883862
525.000000	71.833750
523.500000	71.768072
522.000000	71.727147
520.500000	71.638057
519.000000	71.523643
517.500000	71.389290
516.000000	71.203598
514.500000	71.012968
513.000000	70.808678
511.500000	70.582967
510.000000	70.334194
508.500000	70.098745
507.000000	69.886238
505.500000	69.717742
504.000000	69.615948
502.500000	69.496776
501.000000	69.502483
499.500000	69.582971
498.000000	69.687210
496.500000	69.771647
495.000000	69.881834
493.500000	69.972674
492.000000	70.122387
490.500000	70.241424
489.000000	70.351656
487.500000	70.492210
486.000000	70.667439
484.500000	70.813484
483.000000	71.058729
481.500000	71.367394
480.000000	71.395136
478.500000	71.111611
477.000000	70.833907
475.500000	70.689477
474.000000	70.522151
472.500000	70.367723
471.000000	70.200832
469.500000	69.979996
468.000000	69.718606
466.500000	69.453097
465.000000	69.191238
463.500000	68.978715
462.000000	68.762316
460.500000	68.612073
459.000000	68.521278
457.500000	68.459870
456.000000	68.388724
454.500000	68.390767
453.000000	68.435552
451.500000	68.475104
450.000000	68.473699
448.500000	68.553967
447.000000	68.485208
445.500000	68.552759
444.000000	68.761596
442.500000	68.928505
441.000000	68.838148
439.500000	68.749096
438.000000	68.685023
436.500000	68.593984
435.000000	68.481344
433.500000	68.444669
432.000000	68.430273
430.500000	68.297706
429.000000	68.217576
427.500000	68.149446
426.000000	68.215640
424.500000	68.084223
423.000000	67.981106
421.500000	67.962298
420.000000	67.852084
418.500000	67.694921
417.000000	67.625490
415.500000	67.569682
414.000000	67.475680
412.500000	67.403419
411.000000	67.255257
409.500000	67.246793
408.000000	67.185019
406.500000	67.007390
405.000000	66.937712
403.500000	66.801100
402.000000	66.664230
400.500000	66.598222
399.000000	66.553283
397.500000	66.413124
396.000000	66.202055
394.500000	66.082484
393.000000	65.945136
391.500000	65.717257
390.000000	65.534663
388.500000	65.301784
387.000000	65.253455
385.500000	64.912713
384.000000	64.692617
382.500000	64.447640
381.000000	64.091121
379.500000	63.694480
378.000000	63.406759
376.500000	63.808685
375.000000	63.974834
373.500000	62.698463
372.000000	61.489464
370.500000	60.280137
369.000000	58.833724
367.500000	57.226953
366.000000	55.145727
364.500000	52.880061
363.000000	49.974418
361.500000	46.756997
360.000000	43.044233
358.500000	38.710842
357.000000	34.051800
355.500000	28.902947
354.000000	23.660391
352.500000	18.537326
351.000000	13.728806
349.500000	9.638361
348.000000	6.324511
346.500000	3.931613
345.000000	2.275406
343.500000	1.227711
342.000000	0.614359
340.500000	0.275949
339.000000	0.058357
337.500000	-0.011978
336.000000	-0.038525
334.500000	-0.040120
333.000000	-0.042363
331.500000	-0.036763
330.000000	-0.041817
328.500000	-0.030669
327.000000	-0.040435
325.500000	-0.044882
324.000000	-0.032302
322.500000	-0.040177
321.000000	-0.038209
319.500000	-0.029196
318.000000	0.018628
316.500000	-0.021990
315.000000	-0.016067
313.500000	-0.021267
312.000000	-0.014403
310.500000	-0.017995
309.000000	-0.015745
307.500000	-0.012865
306.000000	0.001801
304.500000	0.002089
303.000000	-0.005982
301.500000	-0.009600
300.000000	-0.008185
